#combined exterior and interior data for T_evap; (T[K], Planck, Stellar, Rosseland)
3.0000000000000000E+00    2.6057788439816012E-03    3.4204534451467299E+00    1.2751102246525011E-03
3.1059655287322618E+00    2.7871592217688233E-03    3.4204534451467299E+00    1.3592822031627109E-03
3.2156739552243598E+00    2.9802371628798799E-03    3.4204534451467299E+00    1.4492773358366923E-03
3.3292574962321346E+00    3.1855656798247317E-03    3.4204534451467299E+00    1.5454954524079649E-03
3.4468529954360925E+00    3.4037001817087131E-03    3.4204534451467299E+00    1.6483614957776632E-03
3.5686022069563790E+00    3.6351986634269202E-03    3.4204534451467299E+00    1.7583267009724137E-03
3.6946518254059528E+00    3.8806223281997094E-03    3.4204534451467299E+00    1.8758695257481200E-03
3.8251536998800524E+00    4.1405375816514862E-03    3.4204534451467299E+00    2.0014967039486478E-03
3.9602651907155879E+00    4.4155194874873072E-03    3.4204534451467299E+00    2.1357444161920185E-03
4.1001490688558144E+00    4.7061555562420429E-03    3.4204534451467299E+00    2.2791789872122618E-03
4.2449739038313119E+00    5.0130518161838489E-03    3.4204534451467299E+00    2.4323980292296431E-03
4.3949142193596993E+00    5.3368397668987046E-03    3.4204534451467299E+00    2.5960313532843232E-03
4.5501507036585132E+00    5.6781847834154143E-03    3.4204534451467299E+00    2.7707419391451789E-03
4.7108703059600501E+00    6.0377955763527367E-03    3.4204534451467299E+00    2.9572267992349060E-03
4.8772669425686850E+00    6.4164362833154026E-03    3.4204534451467299E+00    3.1562186130512787E-03
5.0495410155906377E+00    6.8149370890571506E-03    3.4204534451467299E+00    3.3684860727637329E-03
5.2279001269311909E+00    7.2342086204363869E-03    3.4204534451467299E+00    3.5948357438387803E-03
5.4125592113782046E+00    7.6752560642794924E-03    3.4204534451467299E+00    3.8361134376688122E-03
5.6037407956130689E+00    8.1391944923649099E-03    3.4204534451467299E+00    4.0932059589750087E-03
5.8016752663703963E+00    8.6272650553185434E-03    3.4204534451467299E+00    4.3670431496329555E-03
6.0066011480696169E+00    9.1408519830111154E-03    3.4204534451467299E+00    4.6586002871750248E-03
6.2187653902530293E+00    9.6815003518473091E-03    3.4204534451467299E+00    4.9689008977928427E-03
6.4384236651766908E+00    1.0250934608434879E-02    3.4204534451467299E+00    5.2990200439132756E-03
6.6658406759127811E+00    1.0851077874138982E-02    3.4204534451467299E+00    5.6500881453571614E-03
6.9012904753346884E+00    1.1484072095716596E-02    3.4204534451467299E+00    6.0232953908061597E-03
7.1450567963692624E+00    1.2152299153512139E-02    3.4204534451467299E+00    6.4198967929866629E-03
7.3974330131920443E+00    1.2858402014257532E-02    3.4204534451467299E+00    6.8412172932171417E-03
7.6587243988323896E+00    1.3605313684562371E-02    3.4204534451467299E+00    7.2886614659774841E-03
7.9292442763577622E+00    1.4396270438334564E-02    3.4204534451467299E+00    7.7637136208574698E-03
8.2093202460023029E+00    1.5234855795972288E-02    3.4204534451467299E+00    8.2679559463138871E-03
8.4992881560440416E+00    1.6125011298807682E-02    3.4204534451467299E+00    8.8030661450189257E-03
8.7994991583321234E+00    1.7071088954504560E-02    3.4204534451467299E+00    9.3708392249075446E-03
9.1103132457223861E+00    1.8077866039899356E-02    3.4204534451467299E+00    9.9731854962220000E-03
9.4321068148357909E+00    1.9150607707942247E-02    3.4204534451467299E+00    1.0612155726569480E-02
9.7652657388916850E+00    2.0295087922906307E-02    3.4204534451467299E+00    1.1289939463341876E-02
1.0110193474162946E+01    2.1517665363557949E-02    3.4204534451467299E+00    1.2008893886341233E-02
1.0467303634806061E+01    2.2825312701139692E-02    3.4204534451467299E+00    1.2771542436972093E-02
1.0837027566606025E+01    2.4225704630450064E-02    3.4204534451467299E+00    1.3580605318087758E-02
1.1219811965471335E+01    2.5727278601388383E-02    3.4204534451467299E+00    1.4439010813586863E-02
1.1616115840724994E+01    2.7339297935158713E-02    3.4204534451467299E+00    1.5349905431975881E-02
1.2026419117330413E+01    2.9071968827258387E-02    3.4204534451467299E+00    1.6316691927404477E-02
1.2451213803399156E+01    3.0936493882263938E-02    3.4204534451467299E+00    1.7343028981206085E-02
1.2891014326336300E+01    3.2945211523324053E-02    3.4204534451467299E+00    1.8432877186654418E-02
1.3346348065368609E+01    3.5111655015510827E-02    3.4204534451467299E+00    1.9590499454571721E-02
1.3817766430769083E+01    3.7450707861385865E-02    3.4204534451467299E+00    2.0820513701097575E-02
1.4305834715756038E+01    3.9978662688452113E-02    3.4204534451467299E+00    2.2127894230678131E-02
1.4811143972217785E+01    4.2713389293270926E-02    3.4204534451467299E+00    2.3518032201604658E-02
1.5334300133051286E+01    4.5674387782541896E-02    3.4204534451467299E+00    2.4996738242042495E-02
1.5875936741648431E+01    4.8882967695175826E-02    3.4204534451467299E+00    2.6570311883428718E-02
1.6436703292225193E+01    5.2362292101632554E-02    3.4204534451467299E+00    2.8245545623403933E-02
1.7017278874447534E+01    5.6137569754580563E-02    3.4204534451467299E+00    3.0029804617666238E-02
1.7618359675531394E+01    6.0236089551641038E-02    3.4204534451467299E+00    3.1931032332734248E-02
1.8240671728221173E+01    6.4687416016687163E-02    3.4204534451467299E+00    3.3957835693060802E-02
1.8884968846184627E+01    6.9523496147032945E-02    3.4204534451467299E+00    3.6119530038921578E-02
1.9552019805756849E+01    7.4778673570574411E-02    3.4204534451467299E+00    3.8426148541286613E-02
2.0242632201214423E+01    8.0489976441182415E-02    3.4204534451467299E+00    4.0888579433804591E-02
2.0957638264717446E+01    8.6697110744824543E-02    3.4204534451467299E+00    4.3518580270391967E-02
2.1697899624358065E+01    9.3442573720252484E-02    3.4204534451467299E+00    4.6328859519459406E-02
2.2464312967141105E+01    1.0077175392626474E-01    3.4204534451467299E+00    4.9333168925459595E-02
2.3257792778673313E+01    1.0873276418615531E-01    3.4204534451467299E+00    5.2546310047103598E-02
2.4079299719823517E+01    1.1737665340514840E-01    3.4204534451467299E+00    5.5984325198981458E-02
2.4929823759061236E+01    1.2675711574880447E-01    3.4204534451467299E+00    5.9664517029451643E-02
2.5810395145829254E+01    1.3693039149551939E-01    3.4204534451467299E+00    6.3605585119776958E-02
2.6722064579292049E+01    1.4795472860730294E-01    3.4204534451467299E+00    6.7827631834828747E-02
2.7665935811728254E+01    1.5989036382897368E-01    3.4204534451467299E+00    7.2352408934176951E-02
2.8643146268414043E+01    1.7279882756538326E-01    3.4204534451467299E+00    7.7203337910918754E-02
2.9654879655490589E+01    1.8674256942184456E-01    3.4204534451467299E+00    8.2405682071785641E-02
3.0702343174827575E+01    2.0178407284606961E-01    3.4204534451467299E+00    8.7986543719908786E-02
3.1786804983723918E+01    2.1798581069172698E-01    3.4204534451467299E+00    9.3975176359270607E-02
3.2909571928103169E+01    2.3540943606591877E-01    3.4204534451467299E+00    1.0040299506123501E-01
3.4072004028335677E+01    2.5411559906505066E-01    3.4204534451467299E+00    1.0730378381531704E-01
3.5275488300232773E+01    2.7416327939086282E-01    3.4204534451467299E+00    1.1471366735363922E-01
3.6521481794408061E+01    2.9561044966367844E-01    3.4204534451467299E+00    1.2267149733884798E-01
3.7811486012809581E+01    3.1851389888474124E-01    3.4204534451467299E+00    1.3121883502470494E-01
3.9147055493126302E+01    3.4292989617450148E-01    3.4204534451467299E+00    1.4040013638094959E-01
4.0529808025860810E+01    3.6891522589281295E-01    3.4204534451467299E+00    1.5026296095311875E-01
4.1961393513511240E+01    3.9652776194137029E-01    3.4204534451467299E+00    1.6085788550854832E-01
4.3443545167355794E+01    4.2582889886508957E-01    3.4204534451467299E+00    1.7223901074524275E-01
4.4978049075047366E+01    4.5688471927892921E-01    3.4204534451467299E+00    1.8446389434747637E-01
4.6566763998623138E+01    4.8976832137356308E-01    3.4204534451467299E+00    1.9759385961924522E-01
4.8211585595230147E+01    5.2456112106520247E-01    3.4204534451467299E+00    2.1169386213780864E-01
4.9914505239722644E+01    5.6135611920615336E-01    3.4204534451467299E+00    2.2683315515941388E-01
5.1677575059319224E+01    6.0025910511410285E-01    3.4204534451467299E+00    2.4308520181578833E-01
5.3502930680545909E+01    6.4139079788486386E-01    3.4204534451467299E+00    2.6052809810364008E-01
5.5392750120602578E+01    6.8488713274770929E-01    3.4204534451467299E+00    2.7924441911788750E-01
5.7349321371645829E+01    7.3090141758870009E-01    3.4204534451467299E+00    2.9932213483547737E-01
5.9375002227322796E+01    7.7960333891666456E-01    3.4204534451467299E+00    3.2085452989673058E-01
6.1472246417894510E+01    8.3117863089457877E-01    3.4204534451467299E+00    3.4394080064193300E-01
6.3643556378429672E+01    8.8582601147529672E-01    3.4204534451467299E+00    3.6868588031655591E-01
6.5891560899834928E+01    9.4375620816129246E-01    3.4204534451467299E+00    3.9520166213365449E-01
6.8218968971510208E+01    1.0051869751930023E+00    3.4204534451467299E+00    4.2360687535479702E-01
7.0628585269218178E+01    1.0703387230079591E+00    3.4204534451467299E+00    4.5402762999210894E-01
7.3123328588587739E+01    1.1394295317918266E+00    3.4204534451467299E+00    4.8659801173646389E-01
7.5706175661273647E+01    1.2126675570620757E+00    3.4204534451467299E+00    5.2145965539337202E-01
7.8380253523498894E+01    1.2902473051067702E+00    3.4204534451467299E+00    5.5876320336752539E-01
8.1148784610322849E+01    1.3723419056661215E+00    3.4204534451467299E+00    5.9866776672875832E-01
8.4015122474940881E+01    1.4590983297008990E+00    3.4204534451467299E+00    6.4134148971649985E-01
8.6982687236203873E+01    1.5506303276063249E+00    3.4204534451467299E+00    6.8696051171201999E-01
9.0055071705548812E+01    1.6470175614206479E+00    3.4204534451467299E+00    7.3571032966696093E-01
9.3235978303002270E+01    1.7483008644524802E+00    3.4204534451467299E+00    7.8778448847469618E-01
9.6529260096906100E+01    1.8544820441900864E+00    3.4204534451467299E+00    8.4338468047690174E-01
9.9938826062156153E+01    1.9655207006599560E+00    3.4204534451467299E+00    9.0271838074346800E-01
1.0346886588546354E+02    2.0813426789042353E+00    3.4204534451467299E+00    9.6600180350529063E-01
1.0712359379692580E+02    2.2018339288087221E+00    3.4204534451467299E+00    1.0334543770241613E+00
1.1090736836557576E+02    2.3268472629951900E+00    3.4204534451467299E+00    1.1052994625602162E+00
1.1482483910697920E+02    2.4562104046112148E+00    3.4204534451467299E+00    1.1817658100651711E+00
1.1888068277378797E+02    2.5897202838962121E+00    3.4204534451467299E+00    1.2630809782762886E+00
1.2307973629915718E+02    2.7271498648030450E+00    3.4204534451467299E+00    1.3494720150216202E+00
1.2742715949490271E+02    2.8682548653022311E+00    3.4204534451467299E+00    1.4411670184797132E+00
1.3192808807993632E+02    3.0127625596053158E+00    3.4204534451467299E+00    1.5383858620852298E+00
1.3658805281121437E+02    3.1603840154810379E+00    3.4204534451467299E+00    1.6413467626635807E+00
1.4141261684513370E+02    3.3107995866935962E+00    3.4204534451467299E+00    1.7502559871881567E+00
1.4640753387824964E+02    3.4636599698189143E+00    3.4204534451467299E+00    1.8653083299147795E+00
1.5157894168226974E+02    3.3875227737508182E+00    3.5101398198122644E+00    1.5114228684246687E+00
1.5693294936957258E+02    3.5370205858603958E+00    3.5101398198122644E+00    1.6153980226099389E+00
1.6247613596373097E+02    3.6866808168929719E+00    3.5101398198122644E+00    1.7254012680745461E+00
1.6821511902855468E+02    3.8361256694661297E+00    3.5101398198122644E+00    1.8415938648427292E+00
1.7415674278185460E+02    3.9849431936946429E+00    3.5101398198122644E+00    1.9641219065033917E+00
1.8030830831190286E+02    4.1326848016607487E+00    3.5101398198122644E+00    2.0931189988625225E+00
1.8667715947709803E+02    4.2788488194041205E+00    3.5101398198122644E+00    2.2286953802963305E+00
1.9327089166569760E+02    4.4228825671599177E+00    3.5101398198122644E+00    2.3709396802241618E+00
2.0009760727912413E+02    4.5641871071649822E+00    3.5101398198122644E+00    2.5199220989753548E+00
2.0716537088595135E+02    4.7021083436057705E+00    3.5101398198122644E+00    2.6756803345325775E+00
2.1448286737908427E+02    4.8359566815130481E+00    3.5101398198122644E+00    2.8382320152576375E+00
2.2205883252794877E+02    4.9650049080447340E+00    3.5101398198122644E+00    3.0075608270540530E+00
2.2990230130529540E+02    5.0885055712151921E+00    3.5101398198122644E+00    3.1836213309871080E+00
2.3802291179328489E+02    5.2057095893673884E+00    3.5101398198122644E+00    3.3663461914063313E+00
2.4643025707061713E+02    5.3158722644167167E+00    3.5101398198122644E+00    3.5556330696311829E+00
2.5513466811288930E+02    5.4182813181077254E+00    3.5101398198122644E+00    3.7513648437507259E+00
2.6414653641505117E+02    5.5122646146878349E+00    3.5101398198122644E+00    3.9533981344692712E+00
2.7347660938458705E+02    5.5972109795782048E+00    3.5101398198122644E+00    4.1615748001341064E+00
2.8313635184814427E+02    5.6725879115287476E+00    3.5101398198122644E+00    4.3757356145273807E+00
2.9313729579387660E+02    5.7379487587931957E+00    3.5101398198122644E+00    4.5957119269108944E+00
3.0349136818478553E+02    5.7929471199092193E+00    3.5101398198122644E+00    4.8213394264373424E+00
3.1421129214162710E+02    5.8373463799874745E+00    3.5101398198122644E+00    5.0524729475941728E+00
3.2530973137660959E+02    5.8710206295647289E+00    3.5101398198122644E+00    5.2889734489924480E+00
3.3680032369109853E+02    5.8939610347245663E+00    3.5101398198122644E+00    5.5307348661225566E+00
3.4869678677735646E+02    5.9062719399944719E+00    3.5101398198122644E+00    5.7776683192179634E+00
3.6101330816366544E+02    5.9081690684473198E+00    3.5101398198122644E+00    6.0297124797248260E+00
3.7376502243504467E+02    5.8178864602386229E+00    3.4055112310084628E+00    6.1995936815104189E+00
3.8696715283564077E+02    5.4609162023925357E+00    2.9909823528049997E+00    6.0721672663025661E+00
4.0063544401132759E+02    5.1574202822031454E+00    2.6769699800077915E+00    5.9794779826754851E+00
4.1478669160661980E+02    4.8955481934401908E+00    2.4390948170421463E+00    5.9211254117532226E+00
4.2943761284149554E+02    4.6660049909000421E+00    2.2589005090458252E+00    5.8964229953752270E+00
4.4460621081975989E+02    4.4615358903580837E+00    2.1223971286271475E+00    5.9041263654442275E+00
4.6031059410826708E+02    4.2765436575177196E+00    2.0189925319223030E+00    5.9424493934297287E+00
4.7656949149896485E+02    4.1067490030050973E+00    1.9406618667340372E+00    6.0092297121469187E+00
4.9340288198244309E+02    3.9489151403882130E+00    1.8813236961362156E+00    6.1021452131920162E+00
5.1083065126063684E+02    3.8006406948480849E+00    1.8363740660220942E+00    6.2188946622541215E+00
5.2887421463804299E+02    3.6601648626350030E+00    1.8023231765829446E+00    6.3573380329241527E+00
5.4755511287104378E+02    3.5262342928981116E+00    1.7765288081277737E+00    6.5155614315943993E+00
5.6689562449487210E+02    3.3979798117220974E+00    1.7569891541511475E+00    6.6919071456274164E+00
5.8691951519858117E+02    3.2748177428531298E+00    1.7421871948124774E+00    6.8849753544629042E+00
6.0765068989177485E+02    3.1563836353367032E+00    1.7309743542867608E+00    7.0935862941685128E+00
6.2911387223602765E+02    3.0424677304838843E+00    1.7224804450697835E+00    7.3167505701524886E+00
6.5133543626567803E+02    2.9329642879374438E+00    1.7160460169572656E+00    7.5536394878295878E+00
6.7434163286578985E+02    2.8278445183042682E+00    1.7111718329246290E+00    7.8035283386911312E+00
6.9816073213207346E+02    2.7271183191614132E+00    1.7074794710257644E+00    8.0657838705096729E+00
7.2282116976782140E+02    2.6133239547295499E+00    1.6869605352499517E+00    8.2937150236223278E+00
7.4835235540965130E+02    2.5034064431174907E+00    1.6665559582866281E+00    8.5297964140669631E+00
7.7478566186873422E+02    2.4023508444168336E+00    1.6510987900637342E+00    8.7871204008060104E+00
8.0215264573967897E+02    2.3091384191196820E+00    1.6393896130354100E+00    9.0629485600080351E+00
8.3048594444209971E+02    2.2229862738668724E+00    1.6305197208385085E+00    9.3549448378786710E+00
8.5982037403360118E+02    2.1432814398647762E+00    1.6238004726986051E+00    9.6610725042982732E+00
8.9019058800385733E+02    2.0695406668823590E+00    1.6187105328590192E+00    9.9794839636618793E+00
9.2163390537915473E+02    2.0013678810991347E+00    1.6148547285222665E+00    1.0308485190304252E+01
9.5418786380243341E+02    1.9384347629479992E+00    1.6119338639166285E+00    1.0646459402352903E+01
9.8789128659474920E+02    1.8804590558286385E+00    1.6097212614330285E+00    1.0991837106027845E+01
1.0227855886411724E+03    1.8271891855118656E+00    1.6080451390188850E+00    1.1343074697739423E+01
1.0589119914466876E+03    1.7783991919254465E+00    1.6067754490068302E+00    1.1698596729392447E+01
1.0963148872627712E+03    1.7338767611632711E+00    1.6058136151916711E+00    1.2056805030566105E+01
1.1350389283928459E+03    1.6934225862434613E+00    1.6050850029225228E+00    1.2416029888453167E+01
1.1751302964981960E+03    1.6568450907653667E+00    1.6045330672685432E+00    1.2774528008202836E+01
1.2166382559936744E+03    1.6239570949356259E+00    1.6041149570441999E+00    1.3130485698249785E+01
1.2596123598874483E+03    1.5945769236671128E+00    1.6037982284841166E+00    1.3481989015558787E+01
1.3041038583964914E+03    1.5685259547055685E+00    1.6035583014442580E+00    1.3827038150645654E+01
1.3501674228314519E+03    1.5456272808256111E+00    1.6033765484668236E+00    1.4163566987422559E+01
1.3978574692241625E+03    1.2319785777726757E+00    1.2704171848101906E+00    1.1912325187841859E+01
1.4472325992722181E+03    9.5951147881667487E-01    9.7078060144234013E-01    9.9288717167800637E+00
1.4983517579647787E+03    7.5271050319447319E-01    7.4379867640768416E-01    8.4031279466978646E+00
1.5512759091786245E+03    5.6310546821356144E-01    5.6367934175798151E-01    6.5154801101162878E+00
1.6060700862978565E+03    4.2124615970996404E-01    4.2700067080066217E-01    5.0284944370009903E+00
1.6627990190437411E+03    3.1563665717298151E-01    3.2346435274223878E-01    3.8747700164228207E+00
1.7215324161293761E+03    2.3687114593286743E-01    2.4503203394021264E-01    2.9808706636242954E+00
1.7823403946248577E+03    1.7802400921185121E-01    1.8561766435117016E-01    2.2893384246887600E+00
1.8452954731357936E+03    1.3398364183304684E-01    1.4061031226085871E-01    1.7552185183451148E+00
1.9104750110852074E+03    1.0096941696459708E-01    1.0651569644121542E-01    1.3433591268652285E+00
1.9779568210713478E+03    7.6182172667199899E-02    8.0688204200193833E-02    1.0263317355178256E+00
2.0478213808026539E+03    5.7544208363717805E-02    6.1123458416610918E-02    7.8274259230082099E-01
2.1201545400970977E+03    4.3510000612293126E-02    4.6302491171931914E-02    5.9592101852930313E-01
2.1950417479108573E+03    3.2928811974979509E-02    3.5075367233495566E-02    4.5291003869877294E-01
2.2725750259096239E+03    2.4941223253904191E-02    2.6570435046584878E-02    3.4364059090845239E-01
2.3528469348264384E+03    1.8904920634134098E-02    2.0127744176277607E-02    2.6031095830141365E-01
2.4359532056335870E+03    1.4338698339790379E-02    1.5247300970120354E-02    1.9688290258509647E-01
2.5219959596104222E+03    1.0881342383683450E-02    1.1550197532228105E-02    1.4869080855111910E-01
2.6110779162676686E+03    8.2615184521729664E-03    8.7495526778753416E-03    1.1214054451914217E-01
2.7033053132971791E+03    6.2749658092103476E-03    6.6280186127723774E-03    8.4467411145962790E-02
