#combined exterior and interior data for T_evap; (T[K], Planck, Stellar, Rosseland)
3.0000000000000000E+00    7.5104956852129192E-03    1.7123462074452617E-02    4.0550166775618894E-02
3.1059655287322618E+00    7.9326835239092279E-03    1.7123462074452617E-02    4.0968381394934195E-02
3.2156739552243598E+00    8.3717313029194190E-03    1.7123462074452617E-02    4.1364915522969004E-02
3.3292574962321346E+00    8.8277542998924062E-03    1.7123462074452617E-02    4.1740301044050909E-02
3.4468529954360925E+00    9.3008095967862577E-03    1.7123462074452617E-02    4.2095200159099740E-02
3.5686022069563790E+00    9.7908913001475781E-03    1.7123462074452617E-02    4.2430388081582587E-02
3.6946518254059528E+00    1.0297925126580692E-02    1.7123462074452617E-02    4.2746733954867222E-02
3.8251536998800524E+00    1.0821764185108038E-02    1.7123462074452617E-02    4.3045181904653278E-02
3.9602651907155879E+00    1.1362185841181737E-02    1.7123462074452617E-02    4.3326732298129632E-02
4.1001490688558144E+00    1.1918887291536780E-02    1.7123462074452617E-02    4.3592422351877318E-02
4.2449739038313119E+00    1.2491483671905737E-02    1.7123462074452617E-02    4.3843308543845182E-02
4.3949142193596993E+00    1.3079505815436690E-02    1.7123462074452617E-02    4.4080449403876412E-02
4.5501507036585132E+00    1.3682398824762061E-02    1.7123462074452617E-02    4.4304889554842852E-02
4.7108703059600501E+00    1.4299520813742495E-02    1.7123462074452617E-02    4.4517644889681213E-02
4.8772669425686850E+00    1.4930144597273995E-02    1.7123462074452617E-02    4.4719689933731183E-02
5.0495410155906377E+00    1.5573455457257279E-02    1.7123462074452617E-02    4.4911945144626257E-02
5.2279001269311909E+00    1.6228554160925536E-02    1.7123462074452617E-02    4.5095267377750173E-02
5.4125592113782046E+00    1.6894458423249718E-02    1.7123462074452617E-02    4.5270441194154389E-02
5.6037407956130689E+00    1.7570105571922141E-02    1.7123462074452617E-02    4.5438172020839690E-02
5.8016752663703963E+00    1.8254355997698507E-02    1.7123462074452617E-02    4.5599081034056896E-02
6.0066011480696169E+00    1.8945997422686371E-02    1.7123462074452617E-02    4.5753701781448788E-02
6.2187653902530293E+00    1.9643750012515365E-02    1.7123462074452617E-02    4.5902478539374965E-02
6.4384236651766908E+00    2.0346272347421847E-02    1.7123462074452617E-02    4.6045766379356250E-02
6.6658406759127811E+00    2.1052168252401922E-02    1.7123462074452617E-02    4.6183832892530044E-02
6.9012904753346884E+00    2.1759994468310496E-02    1.7123462074452617E-02    4.6316861493951617E-02
7.1450567963692624E+00    2.2468269124947111E-02    1.7123462074452617E-02    4.6444956200431035E-02
7.3974330131920443E+00    2.3175479907765723E-02    1.7123462074452617E-02    4.6568147568442020E-02
7.6587243988323896E+00    2.3880099163140461E-02    1.7123462074452617E-02    4.6686400883743664E-02
7.9292442763577622E+00    2.4580582813793796E-02    1.7123462074452617E-02    4.6799622493534941E-02
8.2093202460023029E+00    2.5275396846606481E-02    1.7123462074452617E-02    4.6907671488009728E-02
8.4992881560440416E+00    2.5963011839729329E-02    1.7123462074452617E-02    4.7010366649077463E-02
8.7994991583321234E+00    2.6641930668803628E-02    1.7123462074452617E-02    4.7107498971480880E-02
9.1103132457223861E+00    2.7310683413861402E-02    1.7123462074452617E-02    4.7198839279232435E-02
9.4321068148357909E+00    2.7967854424466192E-02    1.7123462074452617E-02    4.7284150429900251E-02
9.7652657388916850E+00    2.8612077063962620E-02    1.7123462074452617E-02    4.7363194681054557E-02
1.0110193474162946E+01    2.9242059312886818E-02    1.7123462074452617E-02    4.7435744657175538E-02
1.0467303634806061E+01    2.9856577823900880E-02    1.7123462074452617E-02    4.7501589652398646E-02
1.0837027566606025E+01    3.0454499568439975E-02    1.7123462074452617E-02    4.7560544427518926E-02
1.1219811965471335E+01    3.1034783501612276E-02    1.7123462074452617E-02    4.7612454657262097E-02
1.1616115840724994E+01    3.1596482035719832E-02    1.7123462074452617E-02    4.7657201594664231E-02
1.2026419117330413E+01    3.2138758210264150E-02    1.7123462074452617E-02    4.7694706925966258E-02
1.2451213803399156E+01    3.2660876439286411E-02    1.7123462074452617E-02    4.7724934320498250E-02
1.2891014326336300E+01    3.3162218198632659E-02    1.7123462074452617E-02    4.7747891730498704E-02
1.3346348065368609E+01    3.3642271253239937E-02    1.7123462074452617E-02    4.7763630938622084E-02
1.3817766430769083E+01    3.4100641941089700E-02    1.7123462074452617E-02    4.7772247305236840E-02
1.4305834715756038E+01    3.4537043023115749E-02    1.7123462074452617E-02    4.7773877640377799E-02
1.4811143972217785E+01    3.4951302678931699E-02    1.7123462074452617E-02    4.7768697827134096E-02
1.5334300133051286E+01    3.5343351248721747E-02    1.7123462074452617E-02    4.7756919506227374E-02
1.5875936741648431E+01    3.5713227202130979E-02    1.7123462074452617E-02    4.7738786134895073E-02
1.6436703292225193E+01    3.6061063123945580E-02    1.7123462074452617E-02    4.7714569040607516E-02
1.7017278874447534E+01    3.6387089022791301E-02    1.7123462074452617E-02    4.7684562513366134E-02
1.7618359675531394E+01    3.6691617963780183E-02    1.7123462074452617E-02    4.7649079771209142E-02
1.8240671728221173E+01    3.6975046356429911E-02    1.7123462074452617E-02    4.7608447777868969E-02
1.8884968846184627E+01    3.7237844477412033E-02    1.7123462074452617E-02    4.7563002814278992E-02
1.9552019805756849E+01    3.7480544042306781E-02    1.7123462074452617E-02    4.7513087240796031E-02
2.0242632201214423E+01    3.7703740104902232E-02    1.7123462074452617E-02    4.7459043925503507E-02
2.0957638264717446E+01    3.7908077271681523E-02    1.7123462074452617E-02    4.7401213736691095E-02
2.1697899624358065E+01    3.8094244052300497E-02    1.7123462074452617E-02    4.7339932186670368E-02
2.2464312967141105E+01    3.8262966851045313E-02    1.7123462074452617E-02    4.7275526452072135E-02
2.3257792778673313E+01    3.8414999556520238E-02    1.7123462074452617E-02    4.7208314879905941E-02
2.4079299719823517E+01    3.8551123593088446E-02    1.7123462074452617E-02    4.7138603219928965E-02
2.4929823759061236E+01    3.8672138534448050E-02    1.7123462074452617E-02    4.7066685229673187E-02
2.5810395145829254E+01    3.8778859181030918E-02    1.7123462074452617E-02    4.6992841494701384E-02
2.6722064579292049E+01    3.8872109284317273E-02    1.7123462074452617E-02    4.6917341324263735E-02
2.7665935811728254E+01    3.8952722215633784E-02    1.7123462074452617E-02    4.6840440678836755E-02
2.8643146268414043E+01    3.9021535866283784E-02    1.7123462074452617E-02    4.6762384803018364E-02
2.9654879655490589E+01    3.9079391656673020E-02    1.7123462074452617E-02    4.6683408435994077E-02
3.0702343174827575E+01    3.9127131604158052E-02    1.7123462074452617E-02    4.6603738905018705E-02
3.1786804983723918E+01    3.9165598913688718E-02    1.7123462074452617E-02    4.6523594500974090E-02
3.2909571928103169E+01    3.9195635048615736E-02    1.7123462074452617E-02    4.6443187385768872E-02
3.4072004028335677E+01    3.9218078482187217E-02    1.7123462074452617E-02    4.6362723425734033E-02
3.5275488300232773E+01    3.9233762053443574E-02    1.7123462074452617E-02    4.6282404524840864E-02
3.6521481794408061E+01    3.9243511027383507E-02    1.7123462074452617E-02    4.6202425767904669E-02
3.7811486012809581E+01    3.9248139113119578E-02    1.7123462074452617E-02    4.6122976892138533E-02
3.9147055493126302E+01    3.9248444479719098E-02    1.7123462074452617E-02    4.6044240929195797E-02
4.0529808025860810E+01    3.9245204872691106E-02    1.7123462074452617E-02    4.5966392462185819E-02
4.1961393513511240E+01    3.9239172216692653E-02    1.7123462074452617E-02    4.5889597850047634E-02
4.3443545167355794E+01    3.9231066493128956E-02    1.7123462074452617E-02    4.5814010602486369E-02
4.4978049075047366E+01    3.9221569484506107E-02    1.7123462074452617E-02    4.5739771259208986E-02
4.6566763998623138E+01    3.9211318299064109E-02    1.7123462074452617E-02    4.5667004529872636E-02
4.8211585595230147E+01    3.9200899383249561E-02    1.7123462074452617E-02    4.5595819175489626E-02
4.9914505239722644E+01    3.9190842351306418E-02    1.7123462074452617E-02    4.5526303834070400E-02
5.1677575059319224E+01    3.9181615124252986E-02    1.7123462074452617E-02    4.5458527528571990E-02
5.3502930680545909E+01    3.9173619660324566E-02    1.7123462074452617E-02    4.5392538055994677E-02
5.5392750120602578E+01    3.9167189112364734E-02    1.7123462074452617E-02    4.5328363249172297E-02
5.7349321371645829E+01    3.9162585817408987E-02    1.7123462074452617E-02    4.5266008860316419E-02
5.9375002227322796E+01    3.9160001181475140E-02    1.7123462074452617E-02    4.5205460895422808E-02
6.1472246417894510E+01    3.9159556773397386E-02    1.7123462074452617E-02    4.5146686133781803E-02
6.3643556378429672E+01    3.9161306909314728E-02    1.7123462074452617E-02    4.5089635225860472E-02
6.5891560899834928E+01    3.9165242601821020E-02    1.7123462074452617E-02    4.5034242706754685E-02
6.8218968971510208E+01    3.9171296810598548E-02    1.7123462074452617E-02    4.4980430818805602E-02
7.0628585269218178E+01    3.9179350761831960E-02    1.7123462074452617E-02    4.4928111806377687E-02
7.3123328588587739E+01    3.9189241249828269E-02    1.7123462074452617E-02    4.4877190412086085E-02
7.5706175661273647E+01    3.9200768323956720E-02    1.7123462074452617E-02    4.4827567934226993E-02
7.8380253523498894E+01    3.9213704043778858E-02    1.7123462074452617E-02    4.4779143260704098E-02
8.1148784610322849E+01    3.9227800895730240E-02    1.7123462074452617E-02    4.4731816847946970E-02
8.4015122474940881E+01    3.9242800597701126E-02    1.7123462074452617E-02    4.4685492763846028E-02
8.6982687236203873E+01    3.9258442207304269E-02    1.7123462074452617E-02    4.4640082206200304E-02
9.0055071705548812E+01    3.9274470746421923E-02    1.7123462074452617E-02    4.4595504038890288E-02
9.3235978303002270E+01    3.9290644386031769E-02    1.7123462074452617E-02    4.4551687796927829E-02
9.6529260096906100E+01    3.9306741465355288E-02    1.7123462074452617E-02    4.4508574735916795E-02
9.9938826062156153E+01    3.9322566030203204E-02    1.7123462074452617E-02    4.4466120327527600E-02
1.0346886588546354E+02    3.9337953953820948E-02    1.7123462074452617E-02    4.4424292319288856E-02
1.0712359379692580E+02    3.9352775781074802E-02    1.7123462074452617E-02    4.4383074451087030E-02
1.1090736836557576E+02    3.9366940312061123E-02    1.7123462074452617E-02    4.4342464916961387E-02
1.1482483910697920E+02    3.9380396944476044E-02    1.7123462074452617E-02    4.4302474520171824E-02
1.1888068277378797E+02    3.9393135385277410E-02    1.7123462074452617E-02    4.4263128695262867E-02
1.2307973629915718E+02    3.9405185762815521E-02    1.7123462074452617E-02    4.4224464741403027E-02
1.2742715949490271E+02    3.9416617458526183E-02    1.7123462074452617E-02    4.4186528808506424E-02
1.3192808807993632E+02    3.9427535480446523E-02    1.7123462074452617E-02    4.4149377077429185E-02
1.3658805281121437E+02    3.9438077900176637E-02    1.7123462074452617E-02    4.4113069886326114E-02
1.4141261684513370E+02    3.9448410368586102E-02    1.7123462074452617E-02    4.4077672373393176E-02
1.4640753387824964E+02    3.9458721172545806E-02    1.7123462074452617E-02    4.4043250544546525E-02
1.5157894168226974E+02    1.5020277102198139E-02    1.5924122731732399E-02    1.9929194602036474E-02
1.5693294936957258E+02    1.5042610352805833E-02    1.5924122731732399E-02    1.9911307090124161E-02
1.6247613596373097E+02    1.5067107218066840E-02    1.5924122731732399E-02    1.9893939524619906E-02
1.6821511902855468E+02    1.5093654428662884E-02    1.5924122731732399E-02    1.9877109230143769E-02
1.7415674278185460E+02    1.5122129244207623E-02    1.5924122731732399E-02    1.9860831042853990E-02
1.8030830831190286E+02    1.5152402529749436E-02    1.5924122731732399E-02    1.9845116576674475E-02
1.8667715947709803E+02    1.5184338470569317E-02    1.5924122731732399E-02    1.9829975221881246E-02
1.9327089166569760E+02    1.5217796982708922E-02    1.5924122731732399E-02    1.9815413400177565E-02
2.0009760727912413E+02    1.5252636198265565E-02    1.5924122731732399E-02    1.9801433970782597E-02
2.0716537088595135E+02    1.5288710575322242E-02    1.5924122731732399E-02    1.9788037350089174E-02
2.1448286737908427E+02    1.5325874870666544E-02    1.5924122731732399E-02    1.9775220152937440E-02
2.2205883252794877E+02    1.5363981645307220E-02    1.5924122731732399E-02    1.9762976335579122E-02
2.2990230130529540E+02    1.5402882805135219E-02    1.5924122731732399E-02    1.9751296752113706E-02
2.3802291179328489E+02    1.5442431248348785E-02    1.5924122731732399E-02    1.9740168886204629E-02
2.4643025707061713E+02    1.5482477798325940E-02    1.5924122731732399E-02    1.9729577974802279E-02
2.5513466811288930E+02    1.5522875156837819E-02    1.5924122731732399E-02    1.9719506172660172E-02
2.6414653641505117E+02    1.5563474880103558E-02    1.5924122731732399E-02    1.9709933714677913E-02
2.7347660938458705E+02    1.5604129193428313E-02    1.5924122731732399E-02    1.9700838817201749E-02
2.8313635184814427E+02    1.5644692987005004E-02    1.5924122731732399E-02    1.9692197713080752E-02
2.9313729579387660E+02    1.5685021604338770E-02    1.5924122731732399E-02    1.9683985645489104E-02
3.0349136818478553E+02    1.5724973125051573E-02    1.5924122731732399E-02    1.9676176869618305E-02
3.1421129214162710E+02    1.5764410717046991E-02    1.5924122731732399E-02    1.9668744732900319E-02
3.2530973137660959E+02    1.5803200366567592E-02    1.5924122731732399E-02    1.9661662620360190E-02
3.3680032369109853E+02    1.5841215694106150E-02    1.5924122731732399E-02    1.9654903515377371E-02
3.4869678677735646E+02    1.5878335801687599E-02    1.5924122731732399E-02    1.9648440813033987E-02
3.6101330816366544E+02    1.5914447746953126E-02    1.5924122731732399E-02    1.9642248204201358E-02
3.7376502243504467E+02    1.5899873030934208E-02    1.5859198055161103E-02    1.9548904822566878E-02
3.8696715283564077E+02    1.5736130580220987E-02    1.5601972437817803E-02    1.9197207499185291E-02
4.0063544401132759E+02    1.5617427608187007E-02    1.5407119845650453E-02    1.8929996519333036E-02
4.1478669160661980E+02    1.5532685131773817E-02    1.5259512311261856E-02    1.8726751851883196E-02
4.2943761284149554E+02    1.5473453409342464E-02    1.5147697201258017E-02    1.8571945597420040E-02
4.4460621081975989E+02    1.5433283688936495E-02    1.5062993413068807E-02    1.8453810575973985E-02
4.6031059410826708E+02    1.5407260679473509E-02    1.4998828254446334E-02    1.8363437901279703E-02
4.7656949149896485E+02    1.5391638208697007E-02    1.4950222102331448E-02    1.8294075912402463E-02
4.9340288198244309E+02    1.5383563324142415E-02    1.4913401271825779E-02    1.8240603791018724E-02
5.1083065126063684E+02    1.5380866379680233E-02    1.4885508893360905E-02    1.8199139027252245E-02
5.2887421463804299E+02    1.5381898876535219E-02    1.4864379458193360E-02    1.8166730923067077E-02
5.4755511287104378E+02    1.5385410524318870E-02    1.4848373402406330E-02    1.8141136350705248E-02
5.6689562449487210E+02    1.5390454617023024E-02    1.4836248554606617E-02    1.8120645215278692E-02
5.8691951519858117E+02    1.5396316059494698E-02    1.4827063565745809E-02    1.8103949363852869E-02
6.0765068989177485E+02    1.5402455588180142E-02    1.4820105715574074E-02    1.8090045088850863E-02
6.2911387223602765E+02    1.5408467435536323E-02    1.4814835030811492E-02    1.8078157439102311E-02
6.5133543626567803E+02    1.5414046947456704E-02    1.4810842305984553E-02    1.8067683458329386E-02
6.7434163286578985E+02    1.5418965068435651E-02    1.4807817751935931E-02    1.8058150563043454E-02
6.9816073213207346E+02    1.5423049669261620E-02    1.4805526548309777E-02    1.8049183558650983E-02
7.2282116976782140E+02    1.5135475116419937E-02    1.4513166457860063E-02    1.7479949361742003E-02
7.4835235540965130E+02    1.4837600078102038E-02    1.4211980042743036E-02    1.6892900372192078E-02
7.7478566186873422E+02    1.4611319191143066E-02    1.3983820983465211E-02    1.6445901330632073E-02
8.0215264573967897E+02    1.4438936081948562E-02    1.3810985003602907E-02    1.6104785387854741E-02
8.3048594444209971E+02    1.4307040951503059E-02    1.3680058935492781E-02    1.5843654236992095E-02
8.5982037403360118E+02    1.4205468231450203E-02    1.3580877939818294E-02    1.5642870523934701E-02
8.9019058800385733E+02    1.4126518701067211E-02    1.3505746721160734E-02    1.5487560121633888E-02
9.2163390537915473E+02    1.4064352968510250E-02    1.3448832241254262E-02    1.5366443198730373E-02
9.5418786380243341E+02    1.4014547372662989E-02    1.3405718152626277E-02    1.5270978644661709E-02
9.8789128659474920E+02    1.3973749022992974E-02    1.3373058528694247E-02    1.5194698569031218E-02
1.0227855886411724E+03    1.3939416825658054E-02    1.3348317741265964E-02    1.5132708456515112E-02
1.0589119914466876E+03    1.3909629560219941E-02    1.3329576192067030E-02    1.5081315676853098E-02
1.0963148872627712E+03    1.3882935178170675E-02    1.3315378824523166E-02    1.5037737673923968E-02
1.1350389283928459E+03    1.3858242251927850E-02    1.3304623976836346E-02    1.4999890172285811E-02
1.1751302964981960E+03    1.3834734978138835E-02    1.3296477004649816E-02    1.4966221011200945E-02
1.2166382559936744E+03    1.3811809286149564E-02    1.3290305393259908E-02    1.4935584788640256E-02
1.2596123598874483E+03    1.3789026911967778E-02    1.3285630249063237E-02    1.4907150596303822E-02
1.3041038583964914E+03    1.3766078680316759E-02    1.3282088751233812E-02    1.4880328533836678E-02
1.3501674228314519E+03    1.3742756605369532E-02    1.3279405944929688E-02    1.4854713617801756E-02
1.3978574692241625E+03    1.1923001961265306E-02    1.1529847189917156E-02    1.2861370935117297E-02
1.4472325992722181E+03    1.0385531469239137E-02    1.0052805177746883E-02    1.1175277232939283E-02
1.4983517579647787E+03    9.2177437652609922E-03    8.9339102967841439E-03    9.8957904917455104E-03
1.5512759091786245E+03    7.0054101506921655E-03    6.8040688077130804E-03    7.5235571958870038E-03
1.6060700862978565E+03    5.2951618639682629E-03    5.1542459157830553E-03    5.6899390664888810E-03
1.6627990190437411E+03    4.0022915427490018E-03    3.9044782198981612E-03    4.3034354226705743E-03
1.7215324161293761E+03    3.0250015333258052E-03    2.9577362438429041E-03    3.2549904639499771E-03
1.7823403946248577E+03    2.2863261981224798E-03    2.2405564061182305E-03    2.4621726551884290E-03
1.8452954731357936E+03    1.7280453712146598E-03    1.6972810050358046E-03    1.8626400506187538E-03
1.9104750110852074E+03    1.3061136886399185E-03    1.2857312198584730E-03    1.4092355856196103E-03
1.9779568210713478E+03    9.8724443973195763E-04    9.7397235037335135E-04    1.0663232787304323E-03
2.0478213808026539E+03    7.4626878668820342E-04    7.3780993203503798E-04    8.0695740011041753E-04
2.1201545400970977E+03    5.6415349099862388E-04    5.5890878477078991E-04    6.1075860506026728E-04
2.1950417479108573E+03    4.2652137210548051E-04    4.2338825362696439E-04    4.6232961085457123E-04
2.2725750259096239E+03    3.2250007134200872E-04    3.2072679432246617E-04    3.5002278487304732E-04
2.3528469348264384E+03    2.4387775082510506E-04    2.4295826753615500E-04    2.6503686800287597E-04
2.4359532056335870E+03    1.8444852201256737E-04    1.8404734260627328E-04    2.0071679398092621E-04
2.5219959596104222E+03    1.3952149523363628E-04    1.3942029258489323E-04    1.5202869545067344E-04
2.6110779162676686E+03    1.0555429241284848E-04    1.0561422788939961E-04    1.1516814768537946E-04
2.7033053132971791E+03    7.9870167535295932E-05    8.0005583599104186E-05    8.7257734901859495E-05
