#combined exterior and interior data for T_evap; (T[K], Planck, Stellar, Rosseland)
3.0000000000000000E+00    8.0911140144022137E-03    1.7378751567161576E-02    4.4833093108270348E-02
3.1059655287322618E+00    8.5462119181878987E-03    1.7378751567161576E-02    4.5238593011848884E-02
3.2156739552243598E+00    9.0196226082731989E-03    1.7378751567161576E-02    4.5619438190258696E-02
3.3292574962321346E+00    9.5114997492645233E-03    1.7378751567161576E-02    4.5976557494630095E-02
3.4468529954360925E+00    1.0021935726905138E-02    1.7378751567161576E-02    4.6311011672039035E-02
3.5686022069563790E+00    1.0550956228675197E-02    1.7378751567161576E-02    4.6623969985061152E-02
3.6946518254059528E+00    1.1098514107160973E-02    1.7378751567161576E-02    4.6916685776800880E-02
3.8251536998800524E+00    1.1664484502279707E-02    1.7378751567161576E-02    4.7190472874526546E-02
3.9602651907155879E+00    1.2248661100613751E-02    1.7378751567161576E-02    4.7446682920030236E-02
4.1001490688558144E+00    1.2850750970585117E-02    1.7378751567161576E-02    4.7686682868294986E-02
4.2449739038313119E+00    1.3470372105176600E-02    1.7378751567161576E-02    4.7911834890311422E-02
4.3949142193596993E+00    1.4107050561897363E-02    1.7378751567161576E-02    4.8123477336281396E-02
4.5501507036585132E+00    1.4760218460957668E-02    1.7378751567161576E-02    4.8322907513678549E-02
4.7108703059600501E+00    1.5429212150175566E-02    1.7378751567161576E-02    4.8511366126019036E-02
4.8772669425686850E+00    1.6113273556543940E-02    1.7378751567161576E-02    4.8690024250049417E-02
5.0495410155906377E+00    1.6811547282857844E-02    1.7378751567161576E-02    4.8859970812021571E-02
5.2279001269311909E+00    1.7523083406437354E-02    1.7378751567161576E-02    4.9022203375343139E-02
5.4125592113782046E+00    1.8246838610597543E-02    1.7378751567161576E-02    4.9177620140223588E-02
5.6037407956130689E+00    1.8981678649332982E-02    1.7378751567161576E-02    4.9327014013935744E-02
5.8016752663703963E+00    1.9726381703794111E-02    1.7378751567161576E-02    4.9471068604754802E-02
6.0066011480696169E+00    2.0479642676168017E-02    1.7378751567161576E-02    4.9610356124815638E-02
6.2187653902530293E+00    2.1240078458535153E-02    1.7378751567161576E-02    4.9745337172098038E-02
6.4384236651766908E+00    2.2006234201252101E-02    1.7378751567161576E-02    4.9876362342940260E-02
6.6658406759127811E+00    2.2776590587748387E-02    1.7378751567161576E-02    5.0003675604163286E-02
6.9012904753346884E+00    2.3549572101015298E-02    1.7378751567161576E-02    5.0127419328777220E-02
7.1450567963692624E+00    2.4323556242482780E-02    1.7378751567161576E-02    5.0247640872319657E-02
7.3974330131920443E+00    2.5096882492327954E-02    1.7378751567161576E-02    5.0364300369048216E-02
7.6587243988323896E+00    2.5867868935510803E-02    1.7378751567161576E-02    5.0477280762534792E-02
7.9292442763577622E+00    2.6634811250938195E-02    1.7378751567161576E-02    5.0586396133720096E-02
8.2093202460023029E+00    2.7396011938406267E-02    1.7378751567161576E-02    5.0691405173811530E-02
8.4992881560440416E+00    2.8149774625229558E-02    1.7378751567161576E-02    5.0792020120573031E-02
8.7994991583321234E+00    2.8894434766601629E-02    1.7378751567161576E-02    5.0887921059625391E-02
9.1103132457223861E+00    2.9628354450757989E-02    1.7378751567161576E-02    5.0978765390994885E-02
9.4321068148357909E+00    3.0349952504534785E-02    1.7378751567161576E-02    5.1064201727336216E-02
9.7652657388916850E+00    3.1057699169077916E-02    1.7378751567161576E-02    5.1143878903904129E-02
1.0110193474162946E+01    3.1750144670500434E-02    1.7378751567161576E-02    5.1217458463035104E-02
1.0467303634806061E+01    3.2425913152247715E-02    1.7378751567161576E-02    5.1284622327277811E-02
1.0837027566606025E+01    3.3083726926041154E-02    1.7378751567161576E-02    5.1345082849826779E-02
1.1219811965471335E+01    3.3722408760015421E-02    1.7378751567161576E-02    5.1398589327682292E-02
1.1616115840724994E+01    3.4340883926709628E-02    1.7378751567161576E-02    5.1444933548553867E-02
1.2026419117330413E+01    3.4938199513157853E-02    1.7378751567161576E-02    5.1483955397806293E-02
1.2451213803399156E+01    3.5513514615724481E-02    1.7378751567161576E-02    5.1515544907298663E-02
1.2891014326336300E+01    3.6066117969476237E-02    1.7378751567161576E-02    5.1539644943901647E-02
1.3346348065368609E+01    3.6595416393611309E-02    1.7378751567161576E-02    5.1556250902809880E-02
1.3817766430769083E+01    3.7100948609343536E-02    1.7378751567161576E-02    5.1565410491246938E-02
1.4305834715756038E+01    3.7582372083942370E-02    1.7378751567161576E-02    5.1567221436367230E-02
1.4811143972217785E+01    3.8039473153351690E-02    1.7378751567161576E-02    5.1561828838450473E-02
1.5334300133051286E+01    3.8472152560230517E-02    1.7378751567161576E-02    5.1549421448795388E-02
1.5875936741648431E+01    3.8880432166440861E-02    1.7378751567161576E-02    5.1530227219754962E-02
1.6436703292225193E+01    3.9264439577864109E-02    1.7378751567161576E-02    5.1504508789914888E-02
1.7017278874447534E+01    3.9624411854427624E-02    1.7378751567161576E-02    5.1472557907859803E-02
1.7618359675531394E+01    3.9960679676415228E-02    1.7378751567161576E-02    5.1434690750793627E-02
1.8240671728221173E+01    4.0273667662064451E-02    1.7378751567161576E-02    5.1391242002729050E-02
1.8884968846184627E+01    4.0563883879463199E-02    1.7378751567161576E-02    5.1342559723516763E-02
1.9552019805756849E+01    4.0831906078069712E-02    1.7378751567161576E-02    5.1289001497074611E-02
2.0242632201214423E+01    4.1078383727448056E-02    1.7378751567161576E-02    5.1230928087350212E-02
2.0957638264717446E+01    4.1304022724183924E-02    1.7378751567161576E-02    5.1168700393347824E-02
2.1697899624358065E+01    4.1509579078402838E-02    1.7378751567161576E-02    5.1102675520439622E-02
2.2464312967141105E+01    4.1695852203516258E-02    1.7378751567161576E-02    5.1033203282576337E-02
2.3257792778673313E+01    4.1863673351714745E-02    1.7378751567161576E-02    5.0960625418481821E-02
2.4079299719823517E+01    4.2013905608771822E-02    1.7378751567161576E-02    5.0885271311635644E-02
2.4929823759061236E+01    4.2147433481835854E-02    1.7378751567161576E-02    5.0807458463785003E-02
2.5810395145829254E+01    4.2265159637544097E-02    1.7378751567161576E-02    5.0727491079514672E-02
2.6722064579292049E+01    4.2367997955698337E-02    1.7378751567161576E-02    5.0645662013968369E-02
2.7665935811728254E+01    4.2456874256327666E-02    1.7378751567161576E-02    5.0562250453793610E-02
2.8643146268414043E+01    4.2532720671690970E-02    1.7378751567161576E-02    5.0477524719387101E-02
2.9654879655490589E+01    4.2596474552918699E-02    1.7378751567161576E-02    5.0391742462808108E-02
3.0702343174827575E+01    4.2649075230687401E-02    1.7378751567161576E-02    5.0305154008696659E-02
3.1786804983723918E+01    4.2691464641375694E-02    1.7378751567161576E-02    5.0218000575724127E-02
3.2909571928103169E+01    4.2724584047460920E-02    1.7378751567161576E-02    5.0130517418259919E-02
3.4072004028335677E+01    4.2749372572453155E-02    1.7378751567161576E-02    5.0042933619732236E-02
3.5275488300232773E+01    4.2766764148033119E-02    1.7378751567161576E-02    4.9955474592464508E-02
3.6521481794408061E+01    4.2777685185049118E-02    1.7378751567161576E-02    4.9868358910138459E-02
3.7811486012809581E+01    4.2783049930924327E-02    1.7378751567161576E-02    4.9781799831150365E-02
3.9147055493126302E+01    4.2783755764119427E-02    1.7378751567161576E-02    4.9696003721509029E-02
4.0529808025860810E+01    4.2780677442034502E-02    1.7378751567161576E-02    4.9611168038423428E-02
4.1961393513511240E+01    4.2774660715823830E-02    1.7378751567161576E-02    4.9527481441956546E-02
4.3443545167355794E+01    4.2766515136191501E-02    1.7378751567161576E-02    4.9445118610538914E-02
4.4978049075047366E+01    4.2757006659666551E-02    1.7378751567161576E-02    4.9364239959513653E-02
4.6566763998623138E+01    4.2746850026801203E-02    1.7378751567161576E-02    4.9284988375627350E-02
4.8211585595230147E+01    4.2736701652851261E-02    1.7378751567161576E-02    4.9207488944689855E-02
4.9914505239722644E+01    4.2727152418226756E-02    1.7378751567161576E-02    4.9131844275656304E-02
5.1677575059319224E+01    4.2718721887006289E-02    1.7378751567161576E-02    4.9058134943475419E-02
5.3502930680545909E+01    4.2711853289452685E-02    1.7378751567161576E-02    4.8986417648155298E-02
5.5392750120602578E+01    4.2706910092564214E-02    1.7378751567161576E-02    4.8916726523442158E-02
5.7349321371645829E+01    4.2704173694460217E-02    1.7378751567161576E-02    4.8849070802358847E-02
5.9375002227322796E+01    4.2703843188250420E-02    1.7378751567161576E-02    4.8783437347821597E-02
6.1472246417894510E+01    4.2706036625714310E-02    1.7378751567161576E-02    4.8719791237356383E-02
6.3643556378429672E+01    4.2710793923352065E-02    1.7378751567161576E-02    4.8658079164915345E-02
6.5891560899834928E+01    4.2718081517341917E-02    1.7378751567161576E-02    4.8598229522503006E-02
6.8218968971510208E+01    4.2727798369861694E-02    1.7378751567161576E-02    4.8540156621622969E-02
7.0628585269218178E+01    4.2739783296669796E-02    1.7378751567161576E-02    4.8483763269216357E-02
7.3123328588587739E+01    4.2753823434999394E-02    1.7378751567161576E-02    4.8428943568993736E-02
7.5706175661273647E+01    4.2769663087557711E-02    1.7378751567161576E-02    4.8375587404359689E-02
7.8380253523498894E+01    4.2787013966777865E-02    1.7378751567161576E-02    4.8323581664868387E-02
8.1148784610322849E+01    4.2805564908684292E-02    1.7378751567161576E-02    4.8272814639150056E-02
8.4015122474940881E+01    4.2824992147652695E-02    1.7378751567161576E-02    4.8223178318876445E-02
8.6982687236203873E+01    4.2844968739296226E-02    1.7378751567161576E-02    4.8174572277708765E-02
9.0055071705548812E+01    4.2865174738295896E-02    1.7378751567161576E-02    4.8126904347527921E-02
9.3235978303002270E+01    4.2885305626110357E-02    1.7378751567161576E-02    4.8080093932624156E-02
9.6529260096906100E+01    4.2905080658116747E-02    1.7378751567161576E-02    4.8034073221208076E-02
9.9938826062156153E+01    4.2924249489669622E-02    1.7378751567161576E-02    4.7988789931109131E-02
1.0346886588546354E+02    4.2942599604609701E-02    1.7378751567161576E-02    4.7944205311409027E-02
1.0712359379692580E+02    4.2959959848416926E-02    1.7378751567161576E-02    4.7900298165483413E-02
1.1090736836557576E+02    4.2976204953814698E-02    1.7378751567161576E-02    4.7857063251604083E-02
1.1482483910697920E+02    4.2991258563480253E-02    1.7378751567161576E-02    4.7814509344095334E-02
1.1888068277378797E+02    4.3005093232062926E-02    1.7378751567161576E-02    4.7772661388959574E-02
1.2307973629915718E+02    4.3017730872859365E-02    1.7378751567161576E-02    4.7731557537759088E-02
1.2742715949490271E+02    4.3029241602380870E-02    1.7378751567161576E-02    4.7691245899704859E-02
1.3192808807993632E+02    4.3039739878856710E-02    1.7378751567161576E-02    4.7651785728337615E-02
1.3658805281121437E+02    4.3049381529266524E-02    1.7378751567161576E-02    4.7613241091410970E-02
1.4141261684513370E+02    4.3058357661130649E-02    1.7378751567161576E-02    4.7575681447978302E-02
1.4640753387824964E+02    4.3066888917008717E-02    1.7378751567161576E-02    4.7539177353339429E-02
1.5157894168226974E+02    1.5335786966192961E-02    1.6093795304766033E-02    2.0123066087378291E-02
1.5693294936957258E+02    1.5356424563473577E-02    1.6093795304766033E-02    2.0105418276132138E-02
1.6247613596373097E+02    1.5379063397502881E-02    1.6093795304766033E-02    2.0088297416761054E-02
1.6821511902855468E+02    1.5403595621112258E-02    1.6093795304766033E-02    2.0071718261355353E-02
1.7415674278185460E+02    1.5429906324211887E-02    1.6093795304766033E-02    2.0055693239814095E-02
1.8030830831190286E+02    1.5457876401555045E-02    1.6093795304766033E-02    2.0040231770220934E-02
1.8667715947709803E+02    1.5487382233423049E-02    1.6093795304766033E-02    2.0025341264631558E-02
1.9327089166569760E+02    1.5518297779838292E-02    1.6093795304766033E-02    2.0011026408819244E-02
2.0009760727912413E+02    1.5550496674366008E-02    1.6093795304766033E-02    1.9997288583337106E-02
2.0716537088595135E+02    1.5583850216823764E-02    1.6093795304766033E-02    1.9984126960751490E-02
2.1448286737908427E+02    1.5618230740756555E-02    1.6093795304766033E-02    1.9971537160523620E-02
2.2205883252794877E+02    1.5653508975165743E-02    1.6093795304766033E-02    1.9959512357263100E-02
2.2990230130529540E+02    1.5689555124497819E-02    1.6093795304766033E-02    1.9948042826690472E-02
2.3802291179328489E+02    1.5726240058710431E-02    1.6093795304766033E-02    1.9937115662310913E-02
2.4643025707061713E+02    1.5763432153431602E-02    1.6093795304766033E-02    1.9926715858469963E-02
2.5513466811288930E+02    1.5801000674773961E-02    1.6093795304766033E-02    1.9916825470145592E-02
2.6414653641505117E+02    1.5838812734188822E-02    1.6093795304766033E-02    1.9907424736069622E-02
2.7347660938458705E+02    1.5876734785113318E-02    1.6093795304766033E-02    1.9898491965622375E-02
2.8313635184814427E+02    1.5914634356425001E-02    1.6093795304766033E-02    1.9890003559162966E-02
2.9313729579387660E+02    1.5952377915968537E-02    1.6093795304766033E-02    1.9881934972206118E-02
3.0349136818478553E+02    1.5989832979034294E-02    1.6093795304766033E-02    1.9874260707021668E-02
3.1421129214162710E+02    1.6026870347016112E-02    1.6093795304766033E-02    1.9866954382241286E-02
3.2530973137660959E+02    1.6063362053100643E-02    1.6093795304766033E-02    1.9859989653359549E-02
3.3680032369109853E+02    1.6099185997056186E-02    1.6093795304766033E-02    1.9853339771904840E-02
3.4869678677735646E+02    1.6134224062057761E-02    1.6093795304766033E-02    1.9846978375015228E-02
3.6101330816366544E+02    1.6168364600411569E-02    1.6093795304766033E-02    1.9840879359491134E-02
3.7376502243504467E+02    1.6159365330130147E-02    1.6038609329680490E-02    1.9760731086338627E-02
3.8696715283564077E+02    1.6023501877424334E-02    1.5819967554938690E-02    1.9461006912123342E-02
4.0063544401132759E+02    1.5925835369802122E-02    1.5654342851596382E-02    1.9233117836427685E-02
4.1478669160661980E+02    1.5856934443356362E-02    1.5528876447366119E-02    1.9059617857560399E-02
4.2943761284149554E+02    1.5809603271377173E-02    1.5433833603862844E-02    1.8927304197098413E-02
4.4460621081975989E+02    1.5778347977796439E-02    1.5361835383902052E-02    1.8826170448654971E-02
4.6031059410826708E+02    1.5758979071322995E-02    1.5307294999072909E-02    1.8748639488304068E-02
4.7656949149896485E+02    1.5748301911706716E-02    1.5265979769775237E-02    1.8688967445329597E-02
4.9340288198244309E+02    1.5743882278811488E-02    1.5234682063845446E-02    1.8642796153212387E-02
5.1083065126063684E+02    1.5743867691065790E-02    1.5210973542150334E-02    1.8606819456624141E-02
5.2887421463804299E+02    1.5746849720287510E-02    1.5193013522257949E-02    1.8578522526594664E-02
5.4755511287104378E+02    1.5751759185726990E-02    1.5179408374838955E-02    1.8555991230950444E-02
5.6689562449487210E+02    1.5757785674641155E-02    1.5169102254209175E-02    1.8537763683126113E-02
5.8691951519858117E+02    1.5764316258937525E-02    1.5161295013677439E-02    1.8522718735580288E-02
6.0765068989177485E+02    1.5770887790248128E-02    1.5155380841031511E-02    1.8509993142583728E-02
6.2911387223602765E+02    1.5777150816010423E-02    1.5150900758983286E-02    1.8498917208189202E-02
6.5133543626567803E+02    1.5782841919989923E-02    1.5147506942880359E-02    1.8488966548332049E-02
6.7434163286578985E+02    1.5787761794422588E-02    1.5144936071939055E-02    1.8479726883511408E-02
6.9816073213207346E+02    1.5791759329789531E-02    1.5142988548856838E-02    1.8470866035781637E-02
7.2282116976782140E+02    1.5488310021944786E-02    1.4835179375041356E-02    1.7871281751110496E-02
7.4835235540965130E+02    1.5173995867677590E-02    1.4517980898736951E-02    1.7252784715083173E-02
7.7478566186873422E+02    1.4935147995905246E-02    1.4277692152878871E-02    1.6781800588897042E-02
8.0215264573967897E+02    1.4753119557741739E-02    1.4095667643434806E-02    1.6422336361617822E-02
8.3048594444209971E+02    1.4613779305415938E-02    1.3957781114598786E-02    1.6147109645453819E-02
8.5982037403360118E+02    1.4506413665841664E-02    1.3853327330738376E-02    1.5935433854092455E-02
8.9019058800385733E+02    1.4422907430281899E-02    1.3774201889201514E-02    1.5771640501510972E-02
9.2163390537915473E+02    1.4357104880732038E-02    1.3714261648208253E-02    1.5643847827719777E-02
9.5418786380243341E+02    1.4304342064280893E-02    1.3668855472718100E-02    1.5543059544689658E-02
9.8789128659474920E+02    1.4261083446956146E-02    1.3634459555678283E-02    1.5462463780605036E-02
1.0227855886411724E+03    1.4224649139524983E-02    1.3608403466555579E-02    1.5396906513840578E-02
1.0589119914466876E+03    1.4193012776101148E-02    1.3588665554913113E-02    1.5342500236069213E-02
1.0963148872627712E+03    1.4164642756749840E-02    1.3573713408579786E-02    1.5296316493081755E-02
1.1350389283928459E+03    1.4138387928325072E-02    1.3562386797790147E-02    1.5256162750442302E-02
1.1751302964981960E+03    1.4113388035570881E-02    1.3553806705746326E-02    1.5220407280655416E-02
1.2166382559936744E+03    1.4089006395592987E-02    1.3547306991181006E-02    1.5187847028251876E-02
1.2596123598874483E+03    1.4064781512201344E-02    1.3542383300930452E-02    1.5157610356228809E-02
1.3041038583964914E+03    1.4040388355074193E-02    1.3538653525419530E-02    1.5129079538124224E-02
1.3501674228314519E+03    1.4015608921284480E-02    1.3535828092301794E-02    1.5101831572290328E-02
1.3978574692241625E+03    1.2275510202774906E-02    1.1865023176755411E-02    1.3201362739252343E-02
1.4472325992722181E+03    1.0806961855115068E-02    1.0456447956067386E-02    1.1596051348723987E-02
1.4983517579647787E+03    9.6908929315343856E-03    9.3894183178493511E-03    1.0377375598030312E-02
1.5512759091786245E+03    7.3668574395587411E-03    7.1532609331695206E-03    7.8918180128378489E-03
1.6060700862978565E+03    5.5680001426477886E-03    5.4187673568973872E-03    5.9681161224447513E-03
1.6627990190437411E+03    4.2082351122865137E-03    4.1048602393831844E-03    4.5135890711854232E-03
1.7215324161293761E+03    3.1804484709667155E-03    3.1095304473871500E-03    3.4137758524053086E-03
1.7823403946248577E+03    2.4036592888567183E-03    2.3555441694357547E-03    2.5821651393917234E-03
1.8452954731357936E+03    1.8166134390111624E-03    1.7843872907590474E-03    1.9533340733138751E-03
1.9104750110852074E+03    1.3729730233892168E-03    1.3517163281982255E-03    1.4777986757160883E-03
1.9779568210713478E+03    1.0377209761929149E-03    1.0239576583962653E-03    1.1181672744631276E-03
2.0478213808026539E+03    7.8438186224331842E-04    7.7567513087872212E-04    8.4616867949702885E-04
2.1201545400970977E+03    5.9293576670259470E-04    5.8759258442154356E-04    6.4042266141595930E-04
2.1950417479108573E+03    4.4826129477790926E-04    4.4511699393742408E-04    4.8477690361151056E-04
2.2725750259096239E+03    3.3892415623532356E-04    3.3718683818230065E-04    3.6701347879047576E-04
2.3528469348264384E+03    2.5628874974687420E-04    2.5542714700162790E-04    2.7790082843475155E-04
2.4359532056335870E+03    1.9382944680356652E-04    1.9349285007622065E-04    2.1045897171014354E-04
2.5219959596104222E+03    1.4661406103581371E-04    1.4657549187451358E-04    1.5940860239646874E-04
2.6110779162676686E+03    1.1091828670050878E-04    1.1103446359797028E-04    1.2076002906433194E-04
2.7033053132971791E+03    8.3928124009198296E-05    8.4111556153891462E-05    9.1495870050468199E-05
