#combined exterior and interior data for T_evap; (T[K], Planck, Stellar, Rosseland)
3.0000000000000000E+00    6.7015322755791876E-03    1.6816407278594042E-02    3.4316662280308628E-02
3.1059655287322618E+00    7.0782026478391977E-03    1.6816407278594042E-02    3.4751132531528096E-02
3.2156739552243598E+00    7.4697309006754907E-03    1.6816407278594042E-02    3.5168809509924778E-02
3.3292574962321346E+00    7.8761753006579803E-03    1.6816407278594042E-02    3.5569670251732022E-02
3.4468529954360925E+00    8.2975395764638450E-03    1.6816407278594042E-02    3.5953807950413516E-02
3.5686022069563790E+00    8.7337690512641706E-03    1.6816407278594042E-02    3.6321423905684012E-02
3.6946518254059528E+00    9.1847462666704762E-03    1.6816407278594042E-02    3.6672816978380228E-02
3.8251536998800524E+00    9.6502877301034816E-03    1.6816407278594042E-02    3.7008372424777329E-02
3.9602651907155879E+00    1.0130141678763711E-02    1.6816407278594042E-02    3.7328550092499309E-02
4.1001490688558144E+00    1.0623984752242299E-02    1.6816407278594042E-02    3.7633870897399252E-02
4.2449739038313119E+00    1.1131420966263232E-02    1.6816407278594042E-02    3.7924904300349893E-02
4.3949142193596993E+00    1.1651980419783173E-02    1.6816407278594042E-02    3.8202255175308682E-02
4.5501507036585132E+00    1.2185118761267377E-02    1.6816407278594042E-02    3.8466551065104486E-02
4.7108703059600501E+00    1.2730216834359967E-02    1.6816407278594042E-02    3.8718429724835308E-02
4.8772669425686850E+00    1.3286582943998039E-02    1.6816407278594042E-02    3.8958528239253165E-02
5.0495410155906377E+00    1.3853451660169252E-02    1.6816407278594042E-02    3.9187471099516251E-02
5.2279001269311909E+00    1.4429987249232336E-02    1.6816407278594042E-02    3.9405861115400960E-02
5.4125592113782046E+00    1.5015285701307939E-02    1.6816407278594042E-02    3.9614270467083122E-02
5.6037407956130689E+00    1.5608377774236949E-02    1.6816407278594042E-02    3.9813233143187701E-02
5.8016752663703963E+00    1.6208232668434800E-02    1.6816407278594042E-02    4.0003238663886491E-02
6.0066011480696169E+00    1.6813762345238931E-02    1.6816407278594042E-02    4.0184727158440334E-02
6.2187653902530293E+00    1.7423826496807793E-02    1.6816407278594042E-02    4.0358085843442651E-02
6.4384236651766908E+00    1.8037238167902810E-02    1.6816407278594042E-02    4.0523646922340194E-02
6.6658406759127811E+00    1.8652770019139377E-02    1.6816407278594042E-02    4.0681686898903689E-02
6.9012904753346884E+00    1.9269161207949744E-02    1.6816407278594042E-02    4.0832427267875192E-02
7.1450567963692624E+00    1.9885124848187882E-02    1.6816407278594042E-02    4.0976036515940548E-02
7.3974330131920443E+00    2.0499355084029076E-02    1.6816407278594042E-02    4.1112633139173800E-02
7.6587243988323896E+00    2.1110540067097384E-02    1.6816407278594042E-02    4.1242290934047104E-02
7.9292442763577622E+00    2.1717360768185388E-02    1.6816407278594042E-02    4.1365042090598318E-02
8.2093202460023029E+00    2.2318513597575067E-02    1.6816407278594042E-02    4.1480886062762380E-02
8.4992881560440416E+00    2.2912705223183533E-02    1.6816407278594042E-02    4.1589793249366069E-02
8.7994991583321234E+00    2.3498676024987297E-02    1.6816407278594042E-02    4.1691714716944307E-02
9.1103132457223861E+00    2.4075195111267093E-02    1.6816407278594042E-02    4.1786586770517734E-02
9.4321068148357909E+00    2.4641083045031060E-02    1.6816407278594042E-02    4.1874340500948279E-02
9.7652657388916850E+00    2.5195206640502416E-02    1.6816407278594042E-02    4.1954906448430494E-02
1.0110193474162946E+01    2.5736500313995842E-02    1.6816407278594042E-02    4.2028223199505173E-02
1.0467303634806061E+01    2.6263960261444549E-02    1.6816407278594042E-02    4.2094241435860144E-02
1.0837027566606025E+01    2.6776662354877911E-02    1.6816407278594042E-02    4.2152930776367302E-02
1.1219811965471335E+01    2.7273762865039526E-02    1.6816407278594042E-02    4.2204283493640526E-02
1.1616115840724994E+01    2.7754499064567058E-02    1.6816407278594042E-02    4.2248317744472845E-02
1.2026419117330413E+01    2.8218203293910525E-02    1.6816407278594042E-02    4.2285081249244530E-02
1.2451213803399156E+01    2.8664294441772702E-02    1.6816407278594042E-02    4.2314651978632156E-02
1.2891014326336300E+01    2.9092290805918491E-02    1.6816407278594042E-02    4.2337139839790205E-02
1.3346348065368609E+01    2.9501800384673503E-02    1.6816407278594042E-02    4.2352685911211427E-02
1.3817766430769083E+01    2.9892530914130085E-02    1.6816407278594042E-02    4.2361462108500954E-02
1.4305834715756038E+01    3.0264279108031845E-02    1.6816407278594042E-02    4.2363669222800868E-02
1.4811143972217785E+01    3.0616937987757661E-02    1.6816407278594042E-02    4.2359534921660939E-02
1.5334300133051286E+01    3.0950485304592067E-02    1.6816407278594042E-02    4.2349310974062755E-02
1.5875936741648431E+01    3.1264988392469238E-02    1.6816407278594042E-02    4.2333270041729924E-02
1.6436703292225193E+01    3.1560592067254520E-02    1.6816407278594042E-02    4.2311702524055833E-02
1.7017278874447534E+01    3.1837521312363393E-02    1.6816407278594042E-02    4.2284912619364325E-02
1.7618359675531394E+01    3.2096068985476602E-02    1.6816407278594042E-02    4.2253215206931108E-02
1.8240671728221173E+01    3.2336596022068370E-02    1.6816407278594042E-02    4.2216931738399362E-02
1.8884968846184627E+01    3.2559523379417872E-02    1.6816407278594042E-02    4.2176386819209696E-02
1.9552019805756849E+01    3.2765321516826588E-02    1.6816407278594042E-02    4.2131905855198534E-02
2.0242632201214423E+01    3.2954512053836468E-02    1.6816407278594042E-02    4.2083810607337652E-02
2.0957638264717446E+01    3.3127656142451667E-02    1.6816407278594042E-02    4.2032417459354009E-02
2.1697899624358065E+01    3.3285349753965916E-02    1.6816407278594042E-02    4.1978034895740840E-02
2.2464312967141105E+01    3.3428218664423630E-02    1.6816407278594042E-02    4.1920961277340914E-02
2.3257792778673313E+01    3.3556909712136242E-02    1.6816407278594042E-02    4.1861484773995511E-02
2.4079299719823517E+01    3.3672090906531262E-02    1.6816407278594042E-02    4.1799880346482493E-02
2.4929823759061236E+01    3.3774443533740865E-02    1.6816407278594042E-02    4.1736410550885131E-02
2.5810395145829254E+01    3.3864659720912939E-02    1.6816407278594042E-02    4.1671324709562203E-02
2.6722064579292049E+01    3.3943437151492853E-02    1.6816407278594042E-02    4.1604860745181292E-02
2.7665935811728254E+01    3.4011479639628452E-02    1.6816407278594042E-02    4.1537243473316589E-02
2.8643146268414043E+01    3.4069492821631922E-02    1.6816407278594042E-02    4.1468687005212827E-02
2.9654879655490589E+01    3.4118183321404767E-02    1.6816407278594042E-02    4.1399394987943719E-02
3.0702343174827575E+01    3.4158256292973366E-02    1.6816407278594042E-02    4.1329563357221093E-02
3.1786804983723918E+01    3.4190415950745283E-02    1.6816407278594042E-02    4.1259378943639340E-02
3.2909571928103169E+01    3.4215363172167161E-02    1.6816407278594042E-02    4.1189022058373971E-02
3.4072004028335677E+01    3.4233794559540807E-02    1.6816407278594042E-02    4.1118666395543749E-02
3.5275488300232773E+01    3.4246400399043482E-02    1.6816407278594042E-02    4.1048481141558193E-02
3.6521481794408061E+01    3.4253863250296022E-02    1.6816407278594042E-02    4.0978628572857993E-02
3.7811486012809581E+01    3.4256854914086698E-02    1.6816407278594042E-02    4.0909265467932693E-02
3.9147055493126302E+01    3.4256033457195530E-02    1.6816407278594042E-02    4.0840542075036339E-02
4.0529808025860810E+01    3.4252039542222674E-02    1.6816407278594042E-02    4.0772600772133911E-02
4.1961393513511240E+01    3.4245492423461948E-02    1.6816407278594042E-02    4.0705576466448276E-02
4.3443545167355794E+01    3.4236985302424972E-02    1.6816407278594042E-02    4.0639592777722292E-02
4.4978049075047366E+01    3.4227080674016065E-02    1.6816407278594042E-02    4.0574762159899136E-02
4.6566763998623138E+01    3.4216305447384666E-02    1.6816407278594042E-02    4.0511183629776591E-02
4.8211585595230147E+01    3.4205146537022529E-02    1.6816407278594042E-02    4.0448942879468118E-02
4.9914505239722644E+01    3.4194046135853078E-02    1.6816407278594042E-02    4.0388108824802232E-02
5.1677575059319224E+01    3.4183398159558565E-02    1.6816407278594042E-02    4.0328734216446914E-02
5.3502930680545909E+01    3.4173545032501806E-02    1.6816407278594042E-02    4.0270854364686831E-02
5.5392750120602578E+01    3.4164775690683248E-02    1.6816407278594042E-02    4.0214488343589976E-02
5.7349321371645829E+01    3.4157323996547542E-02    1.6816407278594042E-02    4.0159637190788640E-02
5.9375002227322796E+01    3.4151368824744302E-02    1.6816407278594042E-02    4.0106285970462417E-02
6.1472246417894510E+01    3.4147034941204510E-02    1.6816407278594042E-02    4.0054404205630771E-02
6.3643556378429672E+01    3.4144395166331776E-02    1.6816407278594042E-02    4.0003948549502739E-02
6.5891560899834928E+01    3.4143473349058991E-02    1.6816407278594042E-02    3.9954862704252220E-02
6.8218968971510208E+01    3.4144248577165560E-02    1.6816407278594042E-02    3.9907080679008007E-02
7.0628585269218178E+01    3.4146660087277930E-02    1.6816407278594042E-02    3.9860528684052356E-02
7.3123328588587739E+01    3.4150612924610434E-02    1.6816407278594042E-02    3.9815127189759124E-02
7.5706175661273647E+01    3.4155983991905163E-02    1.6816407278594042E-02    3.9770794373047078E-02
7.8380253523498894E+01    3.4162628681335364E-02    1.6816407278594042E-02    3.9727446866766256E-02
8.1148784610322849E+01    3.4170387432562094E-02    1.6816407278594042E-02    3.9685003136983726E-02
8.4015122474940881E+01    3.4179092422514011E-02    1.6816407278594042E-02    3.9643385137629113E-02
8.6982687236203873E+01    3.4188573773992127E-02    1.6816407278594042E-02    3.9602521296363963E-02
9.0055071705548812E+01    3.4198665938702771E-02    1.6816407278594042E-02    3.9562346829043096E-02
9.3235978303002270E+01    3.4209213083579444E-02    1.6816407278594042E-02    3.9522806281433953E-02
9.6529260096906100E+01    3.4220074196623124E-02    1.6816407278594042E-02    3.9483854324187731E-02
9.9938826062156153E+01    3.4231127064746854E-02    1.6816407278594042E-02    3.9445457868339688E-02
1.0346886588546354E+02    3.4242272534914367E-02    1.6816407278594042E-02    3.9407594188966173E-02
1.0712359379692580E+02    3.4253436398141608E-02    1.6816407278594042E-02    3.9370254185814135E-02
1.1090736836557576E+02    3.4264571672229009E-02    1.6816407278594042E-02    3.9333440920208150E-02
1.1482483910697920E+02    3.4275660031818388E-02    1.6816407278594042E-02    3.9297167899349526E-02
1.1888068277378797E+02    3.4286711190260749E-02    1.6816407278594042E-02    3.9261460903120729E-02
1.2307973629915718E+02    3.4297762630529256E-02    1.6816407278594042E-02    3.9226355508400944E-02
1.2742715949490271E+02    3.4308878520099680E-02    1.6816407278594042E-02    3.9191894423436818E-02
1.3192808807993632E+02    3.4320146551350190E-02    1.6816407278594042E-02    3.9158128668737045E-02
1.3658805281121437E+02    3.4331676063280150E-02    1.6816407278594042E-02    3.9125112384017106E-02
1.4141261684513370E+02    3.4343593554106738E-02    1.6816407278594042E-02    3.9092903581963434E-02
1.4640753387824964E+02    3.4356038983094306E-02    1.6816407278594042E-02    3.9061560763528153E-02
1.5157894168226974E+02    1.4826784515912537E-02    1.5822027440343434E-02    1.9813534367722110E-02
1.5693294936957258E+02    1.4850131317031943E-02    1.5822027440343434E-02    1.9795517029537121E-02
1.6247613596373097E+02    1.4875721467975349E-02    1.5822027440343434E-02    1.9778015382830683E-02
1.6821511902855468E+02    1.4903439079152092E-02    1.5822027440343434E-02    1.9761048147718174E-02
1.7415674278185460E+02    1.4933157575539167E-02    1.5822027440343434E-02    1.9744631460780079E-02
1.8030830831190286E+02    1.4964742872883810E-02    1.5822027440343434E-02    1.9728778118532200E-02
1.8667715947709803E+02    1.4998053088614613E-02    1.5822027440343434E-02    1.9713498573448951E-02
1.9327089166569760E+02    1.5032941108392364E-02    1.5822027440343434E-02    1.9698800176886536E-02
2.0009760727912413E+02    1.5069257266742185E-02    1.5822027440343434E-02    1.9684686578151887E-02
2.0716537088595135E+02    1.5106847498884319E-02    1.5822027440343434E-02    1.9671158857730839E-02
2.1448286737908427E+02    1.5145557629876936E-02    1.5822027440343434E-02    1.9658214161995011E-02
2.2205883252794877E+02    1.5185230940619290E-02    1.5822027440343434E-02    1.9645846866303218E-02
2.2990230130529540E+02    1.5225709948521678E-02    1.5822027440343434E-02    1.9634048137932601E-02
2.3802291179328489E+02    1.5266838295187005E-02    1.5822027440343434E-02    1.9622805676527372E-02
2.4643025707061713E+02    1.5308457721450282E-02    1.5822027440343434E-02    1.9612104860976049E-02
2.5513466811288930E+02    1.5350412328518276E-02    1.5822027440343434E-02    1.9601927916451302E-02
2.6414653641505117E+02    1.5392545563105096E-02    1.5822027440343434E-02    1.9592255098903704E-02
2.7347660938458705E+02    1.5434702207504989E-02    1.5822027440343434E-02    1.9583064604246615E-02
2.8313635184814427E+02    1.5476730522276876E-02    1.5822027440343434E-02    1.9574332611305409E-02
2.9313729579387660E+02    1.5518479997943009E-02    1.5822027440343434E-02    1.9566034292467640E-02
3.0349136818478553E+02    1.5559803739656347E-02    1.5822027440343434E-02    1.9558143820871520E-02
3.1421129214162710E+02    1.5600560888777266E-02    1.5822027440343434E-02    1.9550634456499232E-02
3.2530973137660959E+02    1.5640614242058034E-02    1.5822027440343434E-02    1.9543479506450620E-02
3.3680032369109853E+02    1.5679835175105541E-02    1.5822027440343434E-02    1.9536651886801849E-02
3.4869678677735646E+02    1.5718101349469514E-02    1.5822027440343434E-02    1.9530124951168001E-02
3.6101330816366544E+02    1.5755299188177804E-02    1.5822027440343434E-02    1.9523872382048394E-02
3.7376502243504467E+02    1.5736792771453626E-02    1.5750610296115023E-02    1.9421733980163888E-02
3.8696715283564077E+02    1.5554263150491519E-02    1.5467662117037435E-02    1.9035389060690959E-02
4.0063544401132759E+02    1.5421348067833962E-02    1.5253324265653291E-02    1.8741964209915665E-02
4.1478669160661980E+02    1.5325869830238354E-02    1.5090955977825870E-02    1.8518890228473316E-02
4.2943761284149554E+02    1.5258542389612568E-02    1.4967959356821570E-02    1.8349089335633034E-02
4.4460621081975989E+02    1.5212279985250323E-02    1.4874785189813493E-02    1.8219620719928858E-02
4.6031059410826708E+02    1.5181683006281742E-02    1.4804203515328729E-02    1.8120687892700198E-02
4.7656949149896485E+02    1.5162637122238294E-02    1.4750736748002440E-02    1.8044867596798273E-02
4.9340288198244309E+02    1.5152009750965685E-02    1.4710233834446146E-02    1.7986530870896064E-02
5.1083065126063684E+02    1.5147419348535376E-02    1.4679552218134821E-02    1.7941411289879989E-02
5.2887421463804299E+02    1.5147056935998137E-02    1.4656309839450566E-02    1.7906267928694760E-02
5.4755511287104378E+02    1.5149551091483955E-02    1.4638703178084793E-02    1.7878638712849348E-02
5.6689562449487210E+02    1.5153863900949714E-02    1.4625365845505112E-02    1.7856648489339044E-02
5.8691951519858117E+02    1.5159211862394840E-02    1.4615262357758207E-02    1.7838864877625180E-02
6.0765068989177485E+02    1.5165004733825923E-02    1.4607608722569301E-02    1.7824190995420850E-02
6.2911387223602765E+02    1.5170799029299508E-02    1.4601810969330480E-02    1.7811782206186094E-02
6.5133543626567803E+02    1.5176262486791561E-02    1.4597418972020817E-02    1.7800983668444761E-02
6.7434163286578985E+02    1.5181146164327149E-02    1.4594091962567328E-02    1.7791284425847556E-02
6.9816073213207346E+02    1.5185263918611625E-02    1.4591571638578557E-02    1.7782281093727294E-02
7.2282116976782140E+02    1.4905637203041406E-02    1.4306892698764111E-02    1.7228270854543908E-02
7.4835235540965130E+02    1.4616011550187564E-02    1.4013679444815914E-02    1.6657023392382678E-02
7.7478566186873422E+02    1.4396062542213584E-02    1.3791560329109435E-02    1.6222120507876747E-02
8.0215264573967897E+02    1.4228568723323410E-02    1.3623299751901666E-02    1.5890306798625364E-02
8.3048594444209971E+02    1.4100481049625137E-02    1.3495839625779117E-02    1.5636374843703591E-02
8.5982037403360118E+02    1.4001908227252349E-02    1.3399284200262160E-02    1.5441211047287014E-02
8.9019058800385733E+02    1.3925359441033514E-02    1.3326141893737152E-02    1.5290337736068079E-02
9.2163390537915473E+02    1.3865153943024846E-02    1.3270734083117042E-02    1.5172775345026028E-02
9.5418786380243341E+02    1.3816988689742366E-02    1.3228761332743399E-02    1.5080209571050536E-02
9.8789128659474920E+02    1.3777602518650936E-02    1.3196966291117430E-02    1.5006343581773565E-02
1.0227855886411724E+03    1.3744524030025816E-02    1.3172880454496095E-02    1.4946411485990492E-02
1.0589119914466876E+03    1.3715884702006020E-02    1.3154635041194409E-02    1.4896816707028920E-02
1.0963148872627712E+03    1.3690272197900628E-02    1.3140813513641776E-02    1.4854847999070222E-02
1.1350389283928459E+03    1.3666624649390308E-02    1.3130343373795799E-02    1.4818473291769347E-02
1.1751302964981960E+03    1.3644147917431029E-02    1.3122412072433172E-02    1.4786178011692210E-02
1.2166382559936744E+03    1.3622253410294313E-02    1.3116403839103461E-02    1.4756843144372055E-02
1.2596123598874483E+03    1.3600513355405462E-02    1.3111852457720428E-02    1.4729655466651097E-02
1.3041038583964914E+03    1.3578625087404561E-02    1.3108404712236959E-02    1.4704036119069390E-02
1.3501674228314519E+03    1.3556383934000691E-02    1.3105792926556501E-02    1.4679586117983374E-02
1.3978574692241625E+03    1.1659224397809904E-02    1.1279919532118900E-02    1.2599806359495482E-02
1.4472325992722181E+03    1.0056159416918764E-02    9.7378914962745720E-03    1.0840166695800296E-02
1.4983517579647787E+03    8.8391069755324667E-03    8.5697681379740456E-03    9.5053062094189369E-03
1.5512759091786245E+03    6.7160088957575635E-03    6.5247553144484761E-03    7.2248227757559470E-03
1.6060700862978565E+03    5.0767150229924915E-03    4.9426592207381399E-03    5.4642715962548959E-03
1.6627990190437411E+03    3.8374090710384689E-03    3.7441956769381432E-03    4.1329434415261100E-03
1.7215324161293761E+03    2.9005514740164137E-03    2.8363183590786418E-03    3.1261660261560436E-03
1.7823403946248577E+03    2.1923925613292240E-03    2.1485794355238434E-03    2.3648164538305860E-03
1.8452954731357936E+03    1.6571420533632527E-03    1.6276060061541384E-03    1.7890513623030496E-03
1.9104750110852074E+03    1.2525905839418513E-03    1.2329507309235441E-03    1.3536008084671903E-03
1.9779568210713478E+03    9.4683714925238255E-04    9.3398985942359423E-04    1.0242526954791188E-03
2.0478213808026539E+03    7.1575921392916979E-04    7.0752213288044919E-04    7.7513628022437056E-04
2.1201545400970977E+03    5.4111361655989610E-04    5.3596504779481662E-04    5.8668398707347543E-04
2.1950417479108573E+03    4.0911907539512504E-04    4.0600776329540312E-04    4.4411092481108492E-04
2.2725750259096239E+03    3.0935315495018691E-04    3.0756065449680611E-04    3.3623203229870944E-04
2.3528469348264384E+03    2.3394329867733614E-04    2.3298459967052259E-04    2.5459508558370764E-04
2.4359532056335870E+03    1.7693960405551436E-04    1.7649202421632018E-04    1.9280858400428941E-04
2.5219959596104222E+03    1.3384435829402394E-04    1.3369695702577714E-04    1.4603776695424567E-04
2.6110779162676686E+03    1.0126082605345404E-04    1.0127866342585536E-04    1.1062851167771459E-04
2.7033053132971791E+03    7.6622137266749643E-05    7.6721278330114882E-05    8.3816959855499403E-05
