#combined exterior and interior data for T_evap; (T[K], Planck, Stellar, Rosseland)
3.0000000000000000E+00    5.5532091416897631E-03    1.6478167521485381E-02    2.4540068788009437E-02
3.1059655287322618E+00    5.8643963577983127E-03    1.6478167521485381E-02    2.4994845319323739E-02
3.2156739552243598E+00    6.1874672280086375E-03    1.6478167521485381E-02    2.5441834099783813E-02
3.3292574962321346E+00    6.5223879361600082E-03    1.6478167521485381E-02    2.5880233915607835E-02
3.4468529954360925E+00    6.8690752648002153E-03    1.6478167521485381E-02    2.6309306990006123E-02
3.5686022069563790E+00    7.2273940650361083E-03    1.6478167521485381E-02    2.6728385301422745E-02
3.6946518254059528E+00    7.5971544016236207E-03    1.6478167521485381E-02    2.7136874269840575E-02
3.8251536998800524E+00    7.9781097201893636E-03    1.6478167521485381E-02    2.7534255487440620E-02
3.9602651907155879E+00    8.3699559444233938E-03    1.6478167521485381E-02    2.7920088197537656E-02
4.1001490688558144E+00    8.7723297804066201E-03    1.6478167521485381E-02    2.8294007907033559E-02
4.2449739038313119E+00    9.1848090000112188E-03    1.6478167521485381E-02    2.8655725129749291E-02
4.3949142193596993E+00    9.6069125935913310E-03    1.6478167521485381E-02    2.9005022191326241E-02
4.5501507036585132E+00    1.0038101619952644E-02    1.6478167521485381E-02    2.9341749153129242E-02
4.7108703059600501E+00    1.0477780267707917E-02    1.6478167521485381E-02    2.9665818644801924E-02
4.8772669425686850E+00    1.0925299074231239E-02    1.6478167521485381E-02    2.9977201208563647E-02
5.0495410155906377E+00    1.1379955372807627E-02    1.6478167521485381E-02    3.0275917758455364E-02
5.2279001269311909E+00    1.1840997465229760E-02    1.6478167521485381E-02    3.0562034143111046E-02
5.4125592113782046E+00    1.2307627621502002E-02    1.6478167521485381E-02    3.0835654365841150E-02
5.6037407956130689E+00    1.2779005828570332E-02    1.6478167521485381E-02    3.1096914097625904E-02
5.8016752663703963E+00    1.3254253944061236E-02    1.6478167521485381E-02    3.1345974404069755E-02
6.0066011480696169E+00    1.3732460233735200E-02    1.6478167521485381E-02    3.1583015839084058E-02
6.2187653902530293E+00    1.4212684269950432E-02    1.6478167521485381E-02    3.1808233040779392E-02
6.4384236651766908E+00    1.4693962165585595E-02    1.6478167521485381E-02    3.2021829943827906E-02
6.6658406759127811E+00    1.5175312113580813E-02    1.6478167521485381E-02    3.2224015697839260E-02
6.9012904753346884E+00    1.5655740196677651E-02    1.6478167521485381E-02    3.2415001353818466E-02
7.1450567963692624E+00    1.6134246425371292E-02    1.6478167521485381E-02    3.2594997351533234E-02
7.3974330131920443E+00    1.6609830252441643E-02    1.6478167521485381E-02    3.2764211567790115E-02
7.6587243988323896E+00    1.7081500424918478E-02    1.6478167521485381E-02    3.2922849600448889E-02
7.9292442763577622E+00    1.7548273670117746E-02    1.6478167521485381E-02    3.3071111919641509E-02
8.2093202460023029E+00    1.8009191548513555E-02    1.6478167521485381E-02    3.3209197799284683E-02
8.4992881560440416E+00    1.8463315697325837E-02    1.6478167521485381E-02    3.3337302787117822E-02
8.7994991583321234E+00    1.8909744892548049E-02    1.6478167521485381E-02    3.3455623410311212E-02
9.1103132457223861E+00    1.9347610187502046E-02    1.6478167521485381E-02    3.3564355876010643E-02
9.4321068148357909E+00    1.9776091070485443E-02    1.6478167521485381E-02    3.3663700812273427E-02
9.7652657388916850E+00    2.0194410272774750E-02    1.6478167521485381E-02    3.3753862681777512E-02
1.0110193474162946E+01    2.0601848641337704E-02    1.6478167521485381E-02    3.3835054084068283E-02
1.0467303634806061E+01    2.0997739415930070E-02    1.6478167521485381E-02    3.3907495396683494E-02
1.0837027566606025E+01    2.1381480375275035E-02    1.6478167521485381E-02    3.3971418058864902E-02
1.1219811965471335E+01    2.1752533035351702E-02    1.6478167521485381E-02    3.4027064942586407E-02
1.1616115840724994E+01    2.2110421839566623E-02    1.6478167521485381E-02    3.4074690799368861E-02
1.2026419117330413E+01    2.2454743418077065E-02    1.6478167521485381E-02    3.4114563772231446E-02
1.2451213803399156E+01    2.2785159077910812E-02    1.6478167521485381E-02    3.4146964252628392E-02
1.2891014326336300E+01    2.3101403266960689E-02    1.6478167521485381E-02    3.4172185400755443E-02
1.3346348065368609E+01    2.3403275383213819E-02    1.6478167521485381E-02    3.4190531546092660E-02
1.3817766430769083E+01    2.3690646289187312E-02    1.6478167521485381E-02    3.4202317602804885E-02
1.4305834715756038E+01    2.3963449575171675E-02    1.6478167521485381E-02    3.4207867131008811E-02
1.4811143972217785E+01    2.4221686249199161E-02    1.6478167521485381E-02    3.4207510866025970E-02
1.5334300133051286E+01    2.4465415639023658E-02    1.6478167521485381E-02    3.4201584632913819E-02
1.5875936741648431E+01    2.4694758445403680E-02    1.6478167521485381E-02    3.4190427262031815E-02
1.6436703292225193E+01    2.4909887493627499E-02    1.6478167521485381E-02    3.4174378575181755E-02
1.7017278874447534E+01    2.5111029378493556E-02    1.6478167521485381E-02    3.4153776966053644E-02
1.7618359675531394E+01    2.5298455286941270E-02    1.6478167521485381E-02    3.4128957661765241E-02
1.8240671728221173E+01    2.5472480995872075E-02    1.6478167521485381E-02    3.4100250309411932E-02
1.8884968846184627E+01    2.5633460936429327E-02    1.6478167521485381E-02    3.4067977125062453E-02
1.9552019805756849E+01    2.5781780566941099E-02    1.6478167521485381E-02    3.4032451920591088E-02
2.0242632201214423E+01    2.5917857588221051E-02    1.6478167521485381E-02    3.3993977454786245E-02
2.0957638264717446E+01    2.6042133606847120E-02    1.6478167521485381E-02    3.3952844916625737E-02
2.1697899624358065E+01    2.6155070825091720E-02    1.6478167521485381E-02    3.3909332735642013E-02
2.2464312967141105E+01    2.6257148523699411E-02    1.6478167521485381E-02    3.3863705566479385E-02
2.3257792778673313E+01    2.6348856892586269E-02    1.6478167521485381E-02    3.3816214922146662E-02
2.4079299719823517E+01    2.6430697183052278E-02    1.6478167521485381E-02    3.3767097363661951E-02
2.4929823759061236E+01    2.6503176132035400E-02    1.6478167521485381E-02    3.3716575655950966E-02
2.5810395145829254E+01    2.6566804269715950E-02    1.6478167521485381E-02    3.3664858528291514E-02
2.6722064579292049E+01    2.6622092202131822E-02    1.6478167521485381E-02    3.3612142465613323E-02
2.7665935811728254E+01    2.6669551017724408E-02    1.6478167521485381E-02    3.3558610607567950E-02
2.8643146268414043E+01    2.6709689248799521E-02    1.6478167521485381E-02    3.3504434847037898E-02
2.9654879655490589E+01    2.6743012289678493E-02    1.6478167521485381E-02    3.3449776159900982E-02
3.0702343174827575E+01    2.6770020726679750E-02    1.6478167521485381E-02    3.3394786884234466E-02
3.1786804983723918E+01    2.6791210755181066E-02    1.6478167521485381E-02    3.3339609713441229E-02
3.2909571928103169E+01    2.6807072650604741E-02    1.6478167521485381E-02    3.3284379831630094E-02
3.4072004028335677E+01    2.6818090305543135E-02    1.6478167521485381E-02    3.3229224953513187E-02
3.5275488300232773E+01    2.6824740149074499E-02    1.6478167521485381E-02    3.3174267129039078E-02
3.6521481794408061E+01    2.6827490498114774E-02    1.6478167521485381E-02    3.3119621055290087E-02
3.7811486012809581E+01    2.6826799994460929E-02    1.6478167521485381E-02    3.3065395428556771E-02
3.9147055493126302E+01    2.6823116140368534E-02    1.6478167521485381E-02    3.3011692430629125E-02
4.0529808025860810E+01    2.6816873442307092E-02    1.6478167521485381E-02    3.2958607022399611E-02
4.1961393513511240E+01    2.6808491518719158E-02    1.6478167521485381E-02    3.2906227635086237E-02
4.3443545167355794E+01    2.6798372625585147E-02    1.6478167521485381E-02    3.2854633593911269E-02
4.4978049075047366E+01    2.6786899423772194E-02    1.6478167521485381E-02    3.2803895630833212E-02
4.6566763998623138E+01    2.6774432474537410E-02    1.6478167521485381E-02    3.2754074522436866E-02
4.8211585595230147E+01    2.6761308214859392E-02    1.6478167521485381E-02    3.2705221574850847E-02
4.9914505239722644E+01    2.6747836363402132E-02    1.6478167521485381E-02    3.2657376279458694E-02
5.1677575059319224E+01    2.6734298350757895E-02    1.6478167521485381E-02    3.2610567102169231E-02
5.3502930680545909E+01    2.6720945692281829E-02    1.6478167521485381E-02    3.2564810732867093E-02
5.5392750120602578E+01    2.6707999296707592E-02    1.6478167521485381E-02    3.2520113224397462E-02
5.7349321371645829E+01    2.6695648520702702E-02    1.6478167521485381E-02    3.2476468684193086E-02
5.9375002227322796E+01    2.6684051605443099E-02    1.6478167521485381E-02    3.2433860948637969E-02
6.1472246417894510E+01    2.6673336260600054E-02    1.6478167521485381E-02    3.2392263899992280E-02
6.3643556378429672E+01    2.6663601241998128E-02    1.6478167521485381E-02    3.2351643513466748E-02
6.5891560899834928E+01    2.6654917872687339E-02    1.6478167521485381E-02    3.2311957644017279E-02
6.8218968971510208E+01    2.6647332726798791E-02    1.6478167521485381E-02    3.2273158447915555E-02
7.0628585269218178E+01    2.6640870431129393E-02    1.6478167521485381E-02    3.2235193681629151E-02
7.3123328588587739E+01    2.6635536854451528E-02    1.6478167521485381E-02    3.2198008106270985E-02
7.5706175661273647E+01    2.6631322686612138E-02    1.6478167521485381E-02    3.2161546016249806E-02
7.8380253523498894E+01    2.6628206833809509E-02    1.6478167521485381E-02    3.2125751551487711E-02
8.1148784610322849E+01    2.6626160144134527E-02    1.6478167521485381E-02    3.2090571160152084E-02
8.4015122474940881E+01    2.6625148854716202E-02    1.6478167521485381E-02    3.2055954650952727E-02
8.6982687236203873E+01    2.6625137882047116E-02    1.6478167521485381E-02    3.2021857357014960E-02
9.0055071705548812E+01    2.6626093754688315E-02    1.6478167521485381E-02    3.1988240086680310E-02
9.3235978303002270E+01    2.6627987233284828E-02    1.6478167521485381E-02    3.1955070939137895E-02
9.6529260096906100E+01    2.6630795478311653E-02    1.6478167521485381E-02    3.1922325682664010E-02
9.9938826062156153E+01    2.6634503644127578E-02    1.6478167521485381E-02    3.1889989266386878E-02
1.0346886588546354E+02    2.6639106311936667E-02    1.6478167521485381E-02    3.1858054004811127E-02
1.0712359379692580E+02    2.6644607949411758E-02    1.6478167521485381E-02    3.1826522127446022E-02
1.1090736836557576E+02    2.6651023267366746E-02    1.6478167521485381E-02    3.1795404402970809E-02
1.1482483910697920E+02    2.6658377339562622E-02    1.6478167521485381E-02    3.1764718600925265E-02
1.1888068277378797E+02    2.6666704598039354E-02    1.6478167521485381E-02    3.1734491016653876E-02
1.2307973629915718E+02    2.6676048110781267E-02    1.6478167521485381E-02    3.1704754431414822E-02
1.2742715949490271E+02    2.6686458761183071E-02    1.6478167521485381E-02    3.1675545979362493E-02
1.3192808807993632E+02    2.6697992971635151E-02    1.6478167521485381E-02    3.1646908343536756E-02
1.3658805281121437E+02    2.6710712003834122E-02    1.6478167521485381E-02    3.1618885611638142E-02
1.4141261684513370E+02    2.6724679161252533E-02    1.6478167521485381E-02    3.1591524222462482E-02
1.4640753387824964E+02    2.6739958116231758E-02    1.6478167521485381E-02    3.1564870437977864E-02
1.5157894168226974E+02    1.4840667911399815E-02    1.5873888293048029E-02    1.9829906040987385E-02
1.5693294936957258E+02    1.4864406154377032E-02    1.5873888293048029E-02    1.9811752929107682E-02
1.6247613596373097E+02    1.4890404930068745E-02    1.5873888293048029E-02    1.9794119553265207E-02
1.6821511902855468E+02    1.4918547946690197E-02    1.5873888293048029E-02    1.9777025006707610E-02
1.7415674278185460E+02    1.4948708292050375E-02    1.5873888293048029E-02    1.9760485724180096E-02
1.8030830831190286E+02    1.4980751592939138E-02    1.5873888293048029E-02    1.9744514722567909E-02
1.8667715947709803E+02    1.5014535654687647E-02    1.5873888293048029E-02    1.9729122608164919E-02
1.9327089166569760E+02    1.5049912998810429E-02    1.5873888293048029E-02    1.9714316818603094E-02
2.0009760727912413E+02    1.5086733517070293E-02    1.5873888293048029E-02    1.9700101023032351E-02
2.0716537088595135E+02    1.5124842539298283E-02    1.5873888293048029E-02    1.9686476269691014E-02
2.1448286737908427E+02    1.5164085132079031E-02    1.5873888293048029E-02    1.9673439617284884E-02
2.2205883252794877E+02    1.5204303590926426E-02    1.5873888293048029E-02    1.9660985313328851E-02
2.2990230130529540E+02    1.5245339216626269E-02    1.5873888293048029E-02    1.9649104360903568E-02
2.3802291179328489E+02    1.5287034211718689E-02    1.5873888293048029E-02    1.9637784264341877E-02
2.4643025707061713E+02    1.5329228608509611E-02    1.5873888293048029E-02    1.9627010190905941E-02
2.5513466811288930E+02    1.5371764594572471E-02    1.5873888293048029E-02    1.9616764138630456E-02
2.6414653641505117E+02    1.5414483471740062E-02    1.5873888293048029E-02    1.9607026135184821E-02
2.7347660938458705E+02    1.5457227697329013E-02    1.5873888293048029E-02    1.9597774152308817E-02
2.8313635184814427E+02    1.5499843086933798E-02    1.5873888293048029E-02    1.9588984154763782E-02
2.9313729579387660E+02    1.5542176569490914E-02    1.5873888293048029E-02    1.9580631123306439E-02
3.0349136818478553E+02    1.5584078642539025E-02    1.5873888293048029E-02    1.9572689067570270E-02
3.1421129214162710E+02    1.5625405866037587E-02    1.5873888293048029E-02    1.9565131118856712E-02
3.2530973137660959E+02    1.5666018486039969E-02    1.5873888293048029E-02    1.9557930503515425E-02
3.3680032369109853E+02    1.5705785463102872E-02    1.5873888293048029E-02    1.9551060109952924E-02
3.4869678677735646E+02    1.5744582180955213E-02    1.5873888293048029E-02    1.9544493332006637E-02
3.6101330816366544E+02    1.5782292987322734E-02    1.5873888293048029E-02    1.9538203970912264E-02
3.7376502243504467E+02    1.5764775904230775E-02    1.5803120395585357E-02    1.9436906005833091E-02
3.8696715283564077E+02    1.5584694293163392E-02    1.5522744472681163E-02    1.9053990884213202E-02
4.0063544401132759E+02    1.5453741736471750E-02    1.5310355147218711E-02    1.8763156898956780E-02
4.1478669160661980E+02    1.5359849710861300E-02    1.5149462934735153E-02    1.8542040396686586E-02
4.2943761284149554E+02    1.5293815473859175E-02    1.5027584464830957E-02    1.8373719391311751E-02
4.4460621081975989E+02    1.5248617075390060E-02    1.4935257335704735E-02    1.8245371441335367E-02
4.6031059410826708E+02    1.5218903846989627E-02    1.4865317312806246E-02    1.8147290052774920E-02
4.7656949149896485E+02    1.5200599208031613E-02    1.4812336607001025E-02    1.8072120613645819E-02
4.9340288198244309E+02    1.5190599911527854E-02    1.4772201901749858E-02    1.8014286736578167E-02
5.1083065126063684E+02    1.5186547381101839E-02    1.4741799209223160E-02    1.7969562439569979E-02
5.2887421463804299E+02    1.5186650902213663E-02    1.4718768124890537E-02    1.7934738178456346E-02
5.4755511287104378E+02    1.5189553786555621E-02    1.4701321524082704E-02    1.7907376441642159E-02
5.6689562449487210E+02    1.5194230270745082E-02    1.4688105439980940E-02    1.7885621556352257E-02
5.8691951519858117E+02    1.5199907130193448E-02    1.4678093802122720E-02    1.7868056834256855E-02
6.0765068989177485E+02    1.5206003027018241E-02    1.4670509745435531E-02    1.7853598240858918E-02
6.2911387223602765E+02    1.5212082411109960E-02    1.4664764699044321E-02    1.7841411858458799E-02
6.5133543626567803E+02    1.5217820282152723E-02    1.4660412628982900E-02    1.7830851954384917E-02
6.7434163286578985E+02    1.5222974464961948E-02    1.4657115865069901E-02    1.7821415411592989E-02
6.9816073213207346E+02    1.5227365251334507E-02    1.4654618453117422E-02    1.7812705679868798E-02
7.2282116976782140E+02    1.4952734237801817E-02    1.4374669698617322E-02    1.7268117428841646E-02
7.4835235540965130E+02    1.4668268716782498E-02    1.4086332375760062E-02    1.6706624324100413E-02
7.7478566186873422E+02    1.4452320744637178E-02    1.3867906945409023E-02    1.6279248836264193E-02
8.0215264573967897E+02    1.4287960345186007E-02    1.3702444423775861E-02    1.5953290520375207E-02
8.3048594444209971E+02    1.4162360351789851E-02    1.3577103870296963E-02    1.5703962452011385E-02
8.5982037403360118E+02    1.4065798547929687E-02    1.3482154093893473E-02    1.5512469512567581E-02
8.9019058800385733E+02    1.3990912872452736E-02    1.3410228092708190E-02    1.5364574631017232E-02
9.2163390537915473E+02    1.3932120775711584E-02    1.3355741675179391E-02    1.5249479874135241E-02
9.5418786380243341E+02    1.3885193931700675E-02    1.3314466902253092E-02    1.5159007369935517E-02
9.8789128659474920E+02    1.3846927934219410E-02    1.3283200589904915E-02    1.5086962280341776E-02
1.0227855886411724E+03    1.3814894320256810E-02    1.3259515283880488E-02    1.5028654385068953E-02
1.0589119914466876E+03    1.3787256695458992E-02    1.3241573279025740E-02    1.4980542442728468E-02
1.0963148872627712E+03    1.3762626483392902E-02    1.3227981593797716E-02    1.4939955039141133E-02
1.1350389283928459E+03    1.3739958894978673E-02    1.3217685565045698E-02    1.4904887882421907E-02
1.1751302964981960E+03    1.3718471570374527E-02    1.3209886155670822E-02    1.4873844935742930E-02
1.2166382559936744E+03    1.3697583460699004E-02    1.3203977835054212E-02    1.4845718655682832E-02
1.2596123598874483E+03    1.3676870824627858E-02    1.3199502139956461E-02    1.4819701806479717E-02
1.3041038583964914E+03    1.3656032174463477E-02    1.3196111728066078E-02    1.4795217399481638E-02
1.3501674228314519E+03    1.3634861700070498E-02    1.3193543374552648E-02    1.4771865298498036E-02
1.3978574692241625E+03    1.1543275848138397E-02    1.1177374337669807E-02    1.2484507936045584E-02
1.4472325992722181E+03    9.7786817753874322E-03    9.4766601337046130E-03    1.0552331010745883E-02
1.4983517579647787E+03    8.4399481193462300E-03    8.1883281830099058E-03    9.0873370169593567E-03
1.5512759091786245E+03    6.4096877602019013E-03    6.2307385271554404E-03    6.9037344697175486E-03
1.6060700862978565E+03    4.8456655418835631E-03    4.7199344265151663E-03    5.2218249790069830E-03
1.6627990190437411E+03    3.6631411078909023E-03    3.5754757279322074E-03    3.9498487070057740E-03
1.7215324161293761E+03    2.7691119883778556E-03    2.7085089361214400E-03    2.9878687823425162E-03
1.7823403946248577E+03    2.0932531995241426E-03    2.0517607208851815E-03    2.2603342034984404E-03
1.8452954731357936E+03    1.5823604024583354E-03    1.5542632575228396E-03    1.7100971726111481E-03
1.9104750110852074E+03    1.1961768035306884E-03    1.1773918332597447E-03    1.2939222506498180E-03
1.9779568210713478E+03    9.0427402508078201E-04    8.9190265697725512E-04    9.7913138538246688E-04
2.0478213808026539E+03    6.8364061547195282E-04    6.7563995884894253E-04    7.4101120707341166E-04
2.1201545400970977E+03    5.1687173851025742E-04    5.1181353346828665E-04    5.6086754714499104E-04
2.1950417479108573E+03    3.9081788400444138E-04    3.8771234953240412E-04    4.2457398858238010E-04
2.2725750259096239E+03    2.9553322212088468E-04    2.9370143814693692E-04    3.2144255012281152E-04
2.3528469348264384E+03    2.2350429285517787E-04    2.2248590965341276E-04    2.4339587023553379E-04
2.4359532056335870E+03    1.6905189778121683E-04    1.6853898759776296E-04    1.8432536966099089E-04
2.5219959596104222E+03    1.2788243305287511E-04    1.2767234033424698E-04    1.3960991632664584E-04
2.6110779162676686E+03    9.6752918960839267E-05    9.6714871251784933E-05    1.0575658507588806E-04
2.7033053132971791E+03    7.3212386648155756E-05    7.3264084506817717E-05    8.0123263909898890E-05
