#combined exterior and interior data for T_evap; (T[K], Planck, Stellar, Rosseland)
3.0000000000000000E+00    3.4275209588093031E-03    2.3419559637072611E+00    1.6545216982330930E-03
3.1059655287322618E+00    3.6732197283649184E-03    2.3419559637072611E+00    1.7641152060941234E-03
3.2156739552243598E+00    3.9363157847037231E-03    2.3419559637072611E+00    1.8813663732411693E-03
3.3292574962321346E+00    4.2179677468653512E-03    2.3419559637072611E+00    2.0068175640333467E-03
3.4468529954360925E+00    4.5194085702857092E-03    2.3419559637072611E+00    2.1410491136955130E-03
3.5686022069563790E+00    4.8419532012666895E-03    2.3419559637072611E+00    2.2846820031432562E-03
3.6946518254059528E+00    5.1870069672146782E-03    2.3419559637072611E+00    2.4383804051479759E-03
3.8251536998800524E+00    5.5560759918718899E-03    2.3419559637072611E+00    2.6028546054556738E-03
3.9602651907155879E+00    5.9507798150665479E-03    2.3419559637072611E+00    2.7788643122042440E-03
4.1001490688558144E+00    6.3728646592868142E-03    2.3419559637072611E+00    2.9672215973040469E-03
4.2449739038313119E+00    6.8242202052470344E-03    2.3419559637072611E+00    3.1687946892653375E-03
4.3949142193596993E+00    7.3068980264954153E-03    2.3419559637072611E+00    3.3845117434760674E-03
4.5501507036585132E+00    7.8231326593679023E-03    2.3419559637072611E+00    3.6153649809641903E-03
4.7108703059600501E+00    8.3753649273730982E-03    2.3419559637072611E+00    3.8624149854197577E-03
4.8772669425686850E+00    8.9662702116893468E-03    2.3419559637072611E+00    4.1267963245348750E-03
5.0495410155906377E+00    9.5987856588557151E-03    2.3419559637072611E+00    4.4097217673704963E-03
5.2279001269311909E+00    1.0276144724169510E-02    2.3419559637072611E+00    4.7124888094850353E-03
5.4125592113782046E+00    1.1001913238875621E-02    2.3419559637072611E+00    5.0364858492612441E-03
5.6037407956130689E+00    1.1780029703800533E-02    2.3419559637072611E+00    5.3831991512954692E-03
5.8016752663703963E+00    1.2614849778316796E-02    2.3419559637072611E+00    5.7542204869320355E-03
6.0066011480696169E+00    1.3511195406751750E-02    2.3419559637072611E+00    6.1512555239189347E-03
6.2187653902530293E+00    1.4474409118690072E-02    2.3419559637072611E+00    6.5761330421099445E-03
6.4384236651766908E+00    1.5510414152546888E-02    2.3419559637072611E+00    7.0308150572324212E-03
6.6658406759127811E+00    1.6625781185588388E-02    2.3419559637072611E+00    7.5174079400933038E-03
6.9012904753346884E+00    1.7827802611207758E-02    2.3419559637072611E+00    8.0381746243519923E-03
7.1450567963692624E+00    1.9124575489393111E-02    2.3419559637072611E+00    8.5955480023182408E-03
7.3974330131920443E+00    2.0525092354867710E-02    2.3419559637072611E+00    9.1921447003273978E-03
7.6587243988323896E+00    2.2039356585564451E-02    2.3419559637072611E+00    9.8307857533100618E-03
7.9292442763577622E+00    2.3678476365927837E-02    2.3419559637072611E+00    1.0514504038710940E-02
8.2093202460023029E+00    2.5454832698702214E-02    2.3419559637072611E+00    1.1246577970432192E-02
8.4992881560440416E+00    2.7382192420611202E-02    2.3419559637072611E+00    1.2030536348638600E-02
8.7994991583321234E+00    2.9475923840635430E-02    2.3419559637072611E+00    1.2870198865792631E-02
9.1103132457223861E+00    3.1753148660404913E-02    2.3419559637072611E+00    1.3769682699532484E-02
9.4321068148357909E+00    3.4233017899876282E-02    2.3419559637072611E+00    1.4733450080953595E-02
9.7652657388916850E+00    3.6936915590256018E-02    2.3419559637072611E+00    1.5766317052724365E-02
1.0110193474162946E+01    3.9888811617561068E-02    2.3419559637072611E+00    1.6873509363513943E-02
1.0467303634806061E+01    4.3115530166229342E-02    2.3419559637072611E+00    1.8060673931533069E-02
1.0837027566606025E+01    4.6647184054333740E-02    2.3419559637072611E+00    1.9333940686989341E-02
1.1219811965471335E+01    5.0517571055397163E-02    2.3419559637072611E+00    2.0699956980501089E-02
1.1616115840724994E+01    5.4764597516061254E-02    2.3419559637072611E+00    2.2165921449777908E-02
1.2026419117330413E+01    5.9430865308713152E-02    2.3419559637072611E+00    2.3739664759539061E-02
1.2451213803399156E+01    6.4564111540496155E-02    2.3419559637072611E+00    2.5429671254783404E-02
1.2891014326336300E+01    7.0217891527616580E-02    2.3419559637072611E+00    2.7245178337612419E-02
1.3346348065368609E+01    7.6452049571243436E-02    2.3419559637072611E+00    2.9196204087217532E-02
1.3817766430769083E+01    8.3333458396308499E-02    2.3419559637072611E+00    3.1293664789902774E-02
1.4305834715756038E+01    9.0936474816128973E-02    2.3419559637072611E+00    3.3549409923825615E-02
1.4811143972217785E+01    9.9343697635128292E-02    2.3419559637072611E+00    3.5976361254140568E-02
1.5334300133051286E+01    1.0864635945076900E-01    2.3419559637072611E+00    3.8588556769492133E-02
1.5875936741648431E+01    1.1894507299897956E-01    2.3419559637072611E+00    4.1401315273577016E-02
1.6436703292225193E+01    1.3035012187326581E-01    2.3419559637072611E+00    4.4431291005143210E-02
1.7017278874447534E+01    1.4298218242375385E-01    2.3419559637072611E+00    4.7696668192368716E-02
1.7618359675531394E+01    1.5697248615646614E-01    2.3419559637072611E+00    5.1217228173101863E-02
1.8240671728221173E+01    1.7246345730841475E-01    2.3419559637072611E+00    5.5014567234156146E-02
1.8884968846184627E+01    1.8960899095875569E-01    2.3419559637072611E+00    5.9112249142527364E-02
1.9552019805756849E+01    2.0857429131089322E-01    2.3419559637072611E+00    6.3535895177429608E-02
2.0242632201214423E+01    2.2953655304807324E-01    2.3419559637072611E+00    6.8313524726896668E-02
2.0957638264717446E+01    2.5268442206348640E-01    2.3419559637072611E+00    7.3475671323891212E-02
2.1697899624358065E+01    2.7821763976200603E-01    2.3419559637072611E+00    7.9055634480183198E-02
2.2464312967141105E+01    3.0634634284847634E-01    2.3419559637072611E+00    8.5089763252546316E-02
2.3257792778673313E+01    3.3728895292639061E-01    2.3419559637072611E+00    9.1617575276777816E-02
2.4079299719823517E+01    3.7127105782231001E-01    2.3419559637072611E+00    9.8682254640517608E-02
2.4929823759061236E+01    4.0852182281715699E-01    2.3419559637072611E+00    1.0633081361161073E-01
2.5810395145829254E+01    4.4927053321647209E-01    2.3419559637072611E+00    1.1461449749230709E-01
2.6722064579292049E+01    4.9374073619208519E-01    2.3419559637072611E+00    1.2358891914976509E-01
2.7665935811728254E+01    5.4214579869740143E-01    2.3419559637072611E+00    1.3331470002392165E-01
2.8643146268414043E+01    5.9468110585137390E-01    2.3419559637072611E+00    1.4385763127011897E-01
2.9654879655490589E+01    6.5151694862924403E-01    2.3419559637072611E+00    1.5528914426100804E-01
3.0702343174827575E+01    7.1278883492172218E-01    2.3419559637072611E+00    1.6768637565367711E-01
3.1786804983723918E+01    7.7859086986967130E-01    2.3419559637072611E+00    1.8113288946848274E-01
3.2909571928103169E+01    8.4896583537110604E-01    2.3419559637072611E+00    1.9571868383427882E-01
3.4072004028335677E+01    9.2389783856651653E-01    2.3419559637072611E+00    2.1154055874735164E-01
3.5275488300232773E+01    1.0033032952083862E+00    2.3419559637072611E+00    2.2870184250748515E-01
3.6521481794408061E+01    1.0870277698683490E+00    2.3419559637072611E+00    2.4731293214370606E-01
3.7811486012809581E+01    1.1748402236330542E+00    2.3419559637072611E+00    2.6749073341367463E-01
3.9147055493126302E+01    1.2664316582885993E+00    2.3419559637072611E+00    2.8935834157786000E-01
4.0529808025860810E+01    1.3614164281004668E+00    2.3419559637072611E+00    3.1304451223233648E-01
4.1961393513511240E+01    1.4593334420663433E+00    2.3419559637072611E+00    3.3868209669875154E-01
4.3443545167355794E+01    1.5596558561876526E+00    2.3419559637072611E+00    3.6640752635888740E-01
4.4978049075047366E+01    1.6617979469964783E+00    2.3419559637072611E+00    3.9635849897447090E-01
4.6566763998623138E+01    1.7651280345138971E+00    2.3419559637072611E+00    4.2867211642533859E-01
4.8211585595230147E+01    1.8689801461124418E+00    2.3419559637072611E+00    4.6348147177760007E-01
4.9914505239722644E+01    1.9726738095891001E+00    2.3419559637072611E+00    5.0091375776147917E-01
5.1677575059319224E+01    2.0755292352126000E+00    2.3419559637072611E+00    5.4108613815257178E-01
5.3502930680545909E+01    2.1768871443761428E+00    2.3419559637072611E+00    5.8410260400479841E-01
5.5392750120602578E+01    2.2761254266809980E+00    2.3419559637072611E+00    6.3004930816774807E-01
5.7349321371645829E+01    2.3726816641271471E+00    2.3419559637072611E+00    6.7899266745079279E-01
5.9375002227322796E+01    2.4660689293240159E+00    2.3419559637072611E+00    7.3097542011539529E-01
6.1472246417894510E+01    2.5558939156813700E+00    2.3419559637072611E+00    7.8601507932416792E-01
6.3643556378429672E+01    2.6418701509666467E+00    2.3419559637072611E+00    8.4410162320358928E-01
6.5891560899834928E+01    2.7238344347848114E+00    2.3419559637072611E+00    9.0519991492270580E-01
6.8218968971510208E+01    2.8017554954014452E+00    2.3419559637072611E+00    9.6925056063574033E-01
7.0628585269218178E+01    2.8757426328325297E+00    2.3419559637072611E+00    1.0361741822621737E+00
7.3123328588587739E+01    2.9460512783109212E+00    2.3419559637072611E+00    1.1058775845523119E+00
7.5706175661273647E+01    3.0130833583132421E+00    2.3419559637072611E+00    1.1782594346130570E+00
7.8380253523498894E+01    3.0773884889213825E+00    2.3419559637072611E+00    1.2532213444249924E+00
8.1148784610322849E+01    3.1396575214157152E+00    2.3419559637072611E+00    1.3306755913603581E+00
8.4015122474940881E+01    3.2007149678411260E+00    2.3419559637072611E+00    1.4105555286746978E+00
8.6982687236203873E+01    3.2615054942371451E+00    2.3419559637072611E+00    1.4928227412637021E+00
9.0055071705548812E+01    3.3230802419928303E+00    2.3419559637072611E+00    1.5774779003478623E+00
9.3235978303002270E+01    3.3865757487786170E+00    2.3419559637072611E+00    1.6645653397904454E+00
9.6529260096906100E+01    3.4531913828432224E+00    2.3419559637072611E+00    1.7541785992255721E+00
9.9938826062156153E+01    3.5241604651394809E+00    2.3419559637072611E+00    1.8464601374239604E+00
1.0346886588546354E+02    3.6007248132147738E+00    2.3419559637072611E+00    1.9416075260578205E+00
1.0712359379692580E+02    3.6840967253031272E+00    2.3419559637072611E+00    2.0398645024977453E+00
1.1090736836557576E+02    3.7754266314231053E+00    2.3419559637072611E+00    2.1415202847020489E+00
1.1482483910697920E+02    3.8757712173298886E+00    2.3419559637072611E+00    2.2469078524119066E+00
1.1888068277378797E+02    3.9860515708833448E+00    2.3419559637072611E+00    2.3563897574490849E+00
1.2307973629915718E+02    4.1070218786671910E+00    2.3419559637072611E+00    2.4703533304618044E+00
1.2742715949490271E+02    4.2392428947279530E+00    2.3419559637072611E+00    2.5892057265610533E+00
1.3192808807993632E+02    4.3830441943291616E+00    2.3419559637072611E+00    2.7133542069394236E+00
1.3658805281121437E+02    4.5385146272499597E+00    2.3419559637072611E+00    2.8432065758849938E+00
1.4141261684513370E+02    4.7054749877743429E+00    2.3419559637072611E+00    2.9791495245759654E+00
1.4640753387824964E+02    4.8834740835722465E+00    2.3419559637072611E+00    3.1215407088320974E+00
1.5157894168226974E+02    5.0717951445230840E+00    2.3419559637072611E+00    3.2707017836957695E+00
1.5693294936957258E+02    5.2694483966104846E+00    2.3419559637072611E+00    3.4268939224520718E+00
1.6247613596373097E+02    5.4752046265058842E+00    2.3419559637072611E+00    3.5903197633968160E+00
1.6821511902855468E+02    5.6876024439943356E+00    2.3419559637072611E+00    3.7610991085813259E+00
1.7415674278185460E+02    3.7916537863315014E+00    2.9421263488538938E+00    1.9156382258430606E+00
1.8030830831190286E+02    3.9316903503375267E+00    2.9421263488538938E+00    2.0394861644576476E+00
1.8667715947709803E+02    4.0704929167213058E+00    2.9421263488538938E+00    2.1694321462154873E+00
1.9327089166569760E+02    4.2075441379832448E+00    2.9421263488538938E+00    2.3055284873802968E+00
2.0009760727912413E+02    4.3422709200015879E+00    2.9421263488538938E+00    2.4478060127199734E+00
2.0716537088595135E+02    4.4740353547656850E+00    2.9421263488538938E+00    2.5962601541280703E+00
2.1448286737908427E+02    4.6021533550754876E+00    2.9421263488538938E+00    2.7508624614788992E+00
2.2205883252794877E+02    4.7258930106582131E+00    2.9421263488538938E+00    2.9115471606598611E+00
2.2990230130529540E+02    4.8444920303242096E+00    2.9421263488538938E+00    3.0782157698680557E+00
2.3802291179328489E+02    4.9571768416683311E+00    2.9421263488538938E+00    3.2507442063977203E+00
2.4643025707061713E+02    5.0631699479314261E+00    2.9421263488538938E+00    3.4289710013874792E+00
2.5513466811288930E+02    5.1617187407292295E+00    2.9421263488538938E+00    3.6127173553193384E+00
2.6414653641505117E+02    5.2521049890512481E+00    2.9421263488538938E+00    3.8017776543211808E+00
2.7347660938458705E+02    5.3336670438602836E+00    2.9421263488538938E+00    3.9959319911835780E+00
2.8313635184814427E+02    5.4058190630120730E+00    2.9421263488538938E+00    4.1949608824777203E+00
2.9313729579387660E+02    5.4680600503281855E+00    2.9421263488538938E+00    4.3986396749216814E+00
3.0349136818478553E+02    5.5199896939574948E+00    2.9421263488538938E+00    4.6067536999869949E+00
3.1421129214162710E+02    5.5613192473629125E+00    2.9421263488538938E+00    4.8191142104264699E+00
3.2530973137660959E+02    5.5918739896281187E+00    2.9421263488538938E+00    5.0355485693611302E+00
3.3680032369109853E+02    5.6116003910081362E+00    2.9421263488538938E+00    5.2559268639131576E+00
3.4869678677735646E+02    5.6205633426730843E+00    2.9421263488538938E+00    5.4801490502352417E+00
3.6101330816366544E+02    5.6189448901250589E+00    2.9421263488538938E+00    5.7081557116033386E+00
3.7376502243504467E+02    5.5392966563515484E+00    2.8557823678022136E+00    5.8650314076112000E+00
3.8696715283564077E+02    5.2376589759954513E+00    2.5136954294789637E+00    5.7666135886208121E+00
4.0063544401132759E+02    4.9783164640789970E+00    2.2545590053259366E+00    5.6985641047387583E+00
4.1478669160661980E+02    4.7515817794041526E+00    2.0582542591892321E+00    5.6606760004308505E+00
4.2943761284149554E+02    4.5498937548753950E+00    1.9095502186097451E+00    5.6523220547785726E+00
4.4460621081975989E+02    4.3673883431194689E+00    1.7969017978758846E+00    5.6723168217086384E+00
4.6031059410826708E+02    4.1995810033029777E+00    1.7115679073913104E+00    5.7190032916725464E+00
4.7656949149896485E+02    4.0430832243020394E+00    1.6469260963136096E+00    5.7904376192238276E+00
4.9340288198244309E+02    3.8953717646497426E+00    1.5979577031018164E+00    5.8845900161351272E+00
5.1083065126063684E+02    3.7546164747941013E+00    1.5608633481532694E+00    5.9994958399611109E+00
5.2887421463804299E+02    3.6195153753975076E+00    1.5327630995869812E+00    6.1333670531850375E+00
5.4755511287104378E+02    3.4891840478890175E+00    1.5114764848424209E+00    6.2846350660153689E+00
5.6689562449487210E+02    3.3630512869195410E+00    1.4953515276772453E+00    6.4519670598159857E+00
5.8691951519858117E+02    3.2407751935238220E+00    1.4831363185142692E+00    6.6342606621633458E+00
6.0765068989177485E+02    3.1221884993147588E+00    1.4738830035173163E+00    6.8306053475545996E+00
6.2911387223602765E+02    3.0072434518963678E+00    1.4668734667848529E+00    7.0402543291094997E+00
6.5133543626567803E+02    2.8959683648609071E+00    1.4615635018376292E+00    7.2625978600452754E+00
6.7434163286578985E+02    2.7884464000806184E+00    1.4575411169563297E+00    7.4971118700441970E+00
6.9816073213207346E+02    2.6847816314641513E+00    1.4544940221854246E+00    7.7433482767944781E+00
7.2282116976782140E+02    2.5658129243717140E+00    1.4326616664279643E+00    7.9519766159597660E+00
7.4835235540965130E+02    2.4502727207033042E+00    1.4107677983020595E+00    8.1682896427823657E+00
7.7478566186873422E+02    2.3437084414298779E+00    1.3941824408462204E+00    8.4063313191664939E+00
8.0215264573967897E+02    2.2450463538192857E+00    1.3816186333151064E+00    8.6633607514795958E+00
8.3048594444209971E+02    2.1534677410189627E+00    1.3721013446009636E+00    8.9370818510265071E+00
8.5982037403360118E+02    2.0683376069002191E+00    1.3648916713524188E+00    9.2255296736012831E+00
8.9019058800385733E+02    1.9891610006898517E+00    1.3594302265100746E+00    9.5269534079910567E+00
9.2163390537915473E+02    1.9155370045224722E+00    1.3552929943675027E+00    9.8397727255070322E+00
9.5418786380243341E+02    1.8471375455993553E+00    1.3521589414241666E+00    1.0162498212011432E+01
9.8789128659474920E+02    1.7836838610642329E+00    1.3497848453045540E+00    1.0493697383623955E+01
1.0227855886411724E+03    1.7249297052265222E+00    1.3479863859116414E+00    1.0831970260297565E+01
1.0589119914466876E+03    1.6706558544217465E+00    1.3466240236468048E+00    1.1175890585355345E+01
1.0963148872627712E+03    1.6206569948764251E+00    1.3455919874156246E+00    1.1524011635456198E+01
1.1350389283928459E+03    1.5747411130931246E+00    1.3448101951263614E+00    1.1874816212359606E+01
1.1751302964981960E+03    1.5327237500469699E+00    1.3442179747414986E+00    1.2226711666779345E+01
1.2166382559936744E+03    1.4944243166353257E+00    1.3437693474491825E+00    1.2578030144854715E+01
1.2596123598874483E+03    1.4596675180840810E+00    1.3434295014754767E+00    1.2926995957605826E+01
1.3041038583964914E+03    1.4282806993132300E+00    1.3431720626184978E+00    1.3271735839864160E+01
1.3501674228314519E+03    1.4000923566423955E+00    1.3429770438378339E+00    1.3610294260951168E+01
1.3978574692241625E+03    1.1423512764454344E+00    1.0711239808498423E+00    1.1961686664196822E+01
1.4472325992722181E+03    9.1651276026089334E-01    8.2635153619162172E-01    1.0511800770531657E+01
1.4983517579647787E+03    7.4276120395807554E-01    6.4093051697063774E-01    9.4120460446337297E+00
1.5512759091786245E+03    5.5133513853848526E-01    4.8593448699805708E-01    7.3261505771843147E+00
1.6060700862978565E+03    4.0872823395868307E-01    3.6810707177279300E-01    5.6665897280471516E+00
1.6627990190437411E+03    3.0355719949501547E-01    2.7885088678563885E-01    4.3763168319601382E+00
1.7215324161293761E+03    2.2584950464138068E-01    2.1123625950079750E-01    3.3744589679557953E+00
1.7823403946248577E+03    1.6832749201054209E-01    1.6001655164966130E-01    2.5976602729934810E+00
1.8452954731357936E+03    1.2566882272402594E-01    1.2121678921569139E-01    1.9962803184382376E+00
1.9104750110852074E+03    9.3973778914600792E-02    9.1824635875384114E-02    1.5314407076865431E+00
1.9779568210713478E+03    7.0382232741065420E-02    6.9559372164556446E-02    1.1727515312313590E+00
2.0478213808026539E+03    5.2791475099615778E-02    5.2693072477322633E-02    8.9646302381736309E-01
2.1201545400970977E+03    3.9652370986604971E-02    3.9916270878745892E-02    6.8402932024110141E-01
2.1950417479108573E+03    2.9822457706903893E-02    3.0237635691455145E-02    5.2100335649489737E-01
2.2725750259096239E+03    2.2456597883835562E-02    2.2905736945068030E-02    3.9613062990186698E-01
2.3528469348264384E+03    1.6929033528820709E-02    1.7351647144320914E-02    3.0066853556319911E-01
2.4359532056335870E+03    1.2775260060005955E-02    1.3144333712697232E-02    2.2783230254141962E-01
2.5219959596104222E+03    9.6497267226685647E-03    9.9571492101253999E-03    1.7236468945764929E-01
2.6110779162676686E+03    7.2951142540602825E-03    7.5427802245258144E-03    1.3020411904094678E-01
2.7033053132971791E+03    5.5193393119961969E-03    5.7138564176687015E-03    9.8217101974514803E-02
