#combined exterior and interior data for T_evap; (T[K], Planck, Stellar, Rosseland)
3.0000000000000000E+00    3.4275209588093031E-03    2.3419559637072611E+00    1.6545216982330930E-03
3.1059655287322618E+00    3.6732197283649184E-03    2.3419559637072611E+00    1.7641152060941234E-03
3.2156739552243598E+00    3.9363157847037231E-03    2.3419559637072611E+00    1.8813663732411693E-03
3.3292574962321346E+00    4.2179677468653512E-03    2.3419559637072611E+00    2.0068175640333467E-03
3.4468529954360925E+00    4.5194085702857092E-03    2.3419559637072611E+00    2.1410491136955130E-03
3.5686022069563790E+00    4.8419532012666895E-03    2.3419559637072611E+00    2.2846820031432562E-03
3.6946518254059528E+00    5.1870069672146782E-03    2.3419559637072611E+00    2.4383804051479759E-03
3.8251536998800524E+00    5.5560759918718899E-03    2.3419559637072611E+00    2.6028546054556738E-03
3.9602651907155879E+00    5.9507798150665479E-03    2.3419559637072611E+00    2.7788643122042440E-03
4.1001490688558144E+00    6.3728646592868142E-03    2.3419559637072611E+00    2.9672215973040469E-03
4.2449739038313119E+00    6.8242202052470344E-03    2.3419559637072611E+00    3.1687946892653375E-03
4.3949142193596993E+00    7.3068980264954153E-03    2.3419559637072611E+00    3.3845117434760674E-03
4.5501507036585132E+00    7.8231326593679023E-03    2.3419559637072611E+00    3.6153649809641903E-03
4.7108703059600501E+00    8.3753649273730982E-03    2.3419559637072611E+00    3.8624149854197577E-03
4.8772669425686850E+00    8.9662702116893468E-03    2.3419559637072611E+00    4.1267963245348750E-03
5.0495410155906377E+00    9.5987856588557151E-03    2.3419559637072611E+00    4.4097217673704963E-03
5.2279001269311909E+00    1.0276144724169510E-02    2.3419559637072611E+00    4.7124888094850353E-03
5.4125592113782046E+00    1.1001913238875621E-02    2.3419559637072611E+00    5.0364858492612441E-03
5.6037407956130689E+00    1.1780029703800533E-02    2.3419559637072611E+00    5.3831991512954692E-03
5.8016752663703963E+00    1.2614849778316796E-02    2.3419559637072611E+00    5.7542204869320355E-03
6.0066011480696169E+00    1.3511195406751750E-02    2.3419559637072611E+00    6.1512555239189347E-03
6.2187653902530293E+00    1.4474409118690072E-02    2.3419559637072611E+00    6.5761330421099445E-03
6.4384236651766908E+00    1.5510414152546888E-02    2.3419559637072611E+00    7.0308150572324212E-03
6.6658406759127811E+00    1.6625781185588388E-02    2.3419559637072611E+00    7.5174079400933038E-03
6.9012904753346884E+00    1.7827802611207758E-02    2.3419559637072611E+00    8.0381746243519923E-03
7.1450567963692624E+00    1.9124575489393111E-02    2.3419559637072611E+00    8.5955480023182408E-03
7.3974330131920443E+00    2.0525092354867710E-02    2.3419559637072611E+00    9.1921447003273978E-03
7.6587243988323896E+00    2.2039356585564451E-02    2.3419559637072611E+00    9.8307857533100618E-03
7.9292442763577622E+00    2.3678476365927837E-02    2.3419559637072611E+00    1.0514504038710940E-02
8.2093202460023029E+00    2.5454832698702214E-02    2.3419559637072611E+00    1.1246577970432192E-02
8.4992881560440416E+00    2.7382192420611202E-02    2.3419559637072611E+00    1.2030536348638600E-02
8.7994991583321234E+00    2.9475923840635430E-02    2.3419559637072611E+00    1.2870198865792631E-02
9.1103132457223861E+00    3.1753148660404913E-02    2.3419559637072611E+00    1.3769682699532484E-02
9.4321068148357909E+00    3.4233017899876282E-02    2.3419559637072611E+00    1.4733450080953595E-02
9.7652657388916850E+00    3.6936915590256018E-02    2.3419559637072611E+00    1.5766317052724365E-02
1.0110193474162946E+01    3.9888811617561068E-02    2.3419559637072611E+00    1.6873509363513943E-02
1.0467303634806061E+01    4.3115530166229342E-02    2.3419559637072611E+00    1.8060673931533069E-02
1.0837027566606025E+01    4.6647184054333740E-02    2.3419559637072611E+00    1.9333940686989341E-02
1.1219811965471335E+01    5.0517571055397163E-02    2.3419559637072611E+00    2.0699956980501089E-02
1.1616115840724994E+01    5.4764597516061254E-02    2.3419559637072611E+00    2.2165921449777908E-02
1.2026419117330413E+01    5.9430865308713152E-02    2.3419559637072611E+00    2.3739664759539061E-02
1.2451213803399156E+01    6.4564111540496155E-02    2.3419559637072611E+00    2.5429671254783404E-02
1.2891014326336300E+01    7.0217891527616580E-02    2.3419559637072611E+00    2.7245178337612419E-02
1.3346348065368609E+01    7.6452049571243436E-02    2.3419559637072611E+00    2.9196204087217532E-02
1.3817766430769083E+01    8.3333458396308499E-02    2.3419559637072611E+00    3.1293664789902774E-02
1.4305834715756038E+01    9.0936474816128973E-02    2.3419559637072611E+00    3.3549409923825615E-02
1.4811143972217785E+01    9.9343697635128292E-02    2.3419559637072611E+00    3.5976361254140568E-02
1.5334300133051286E+01    1.0864635945076900E-01    2.3419559637072611E+00    3.8588556769492133E-02
1.5875936741648431E+01    1.1894507299897956E-01    2.3419559637072611E+00    4.1401315273577016E-02
1.6436703292225193E+01    1.3035012187326581E-01    2.3419559637072611E+00    4.4431291005143210E-02
1.7017278874447534E+01    1.4298218242375385E-01    2.3419559637072611E+00    4.7696668192368716E-02
1.7618359675531394E+01    1.5697248615646614E-01    2.3419559637072611E+00    5.1217228173101863E-02
1.8240671728221173E+01    1.7246345730841475E-01    2.3419559637072611E+00    5.5014567234156146E-02
1.8884968846184627E+01    1.8960899095875569E-01    2.3419559637072611E+00    5.9112249142527364E-02
1.9552019805756849E+01    2.0857429131089322E-01    2.3419559637072611E+00    6.3535895177429608E-02
2.0242632201214423E+01    2.2953655304807324E-01    2.3419559637072611E+00    6.8313524726896668E-02
2.0957638264717446E+01    2.5268442206348640E-01    2.3419559637072611E+00    7.3475671323891212E-02
2.1697899624358065E+01    2.7821763976200603E-01    2.3419559637072611E+00    7.9055634480183198E-02
2.2464312967141105E+01    3.0634634284847634E-01    2.3419559637072611E+00    8.5089763252546316E-02
2.3257792778673313E+01    3.3728895292639061E-01    2.3419559637072611E+00    9.1617575276777816E-02
2.4079299719823517E+01    3.7127105782231001E-01    2.3419559637072611E+00    9.8682254640517608E-02
2.4929823759061236E+01    4.0852182281715699E-01    2.3419559637072611E+00    1.0633081361161073E-01
2.5810395145829254E+01    4.4927053321647209E-01    2.3419559637072611E+00    1.1461449749230709E-01
2.6722064579292049E+01    4.9374073619208519E-01    2.3419559637072611E+00    1.2358891914976509E-01
2.7665935811728254E+01    5.4214579869740143E-01    2.3419559637072611E+00    1.3331470002392165E-01
2.8643146268414043E+01    5.9468110585137390E-01    2.3419559637072611E+00    1.4385763127011897E-01
2.9654879655490589E+01    6.5151694862924403E-01    2.3419559637072611E+00    1.5528914426100804E-01
3.0702343174827575E+01    7.1278883492172218E-01    2.3419559637072611E+00    1.6768637565367711E-01
3.1786804983723918E+01    7.7859086986967130E-01    2.3419559637072611E+00    1.8113288946848274E-01
3.2909571928103169E+01    8.4896583537110604E-01    2.3419559637072611E+00    1.9571868383427882E-01
3.4072004028335677E+01    9.2389783856651653E-01    2.3419559637072611E+00    2.1154055874735164E-01
3.5275488300232773E+01    1.0033032952083862E+00    2.3419559637072611E+00    2.2870184250748515E-01
3.6521481794408061E+01    1.0870277698683490E+00    2.3419559637072611E+00    2.4731293214370606E-01
3.7811486012809581E+01    1.1748402236330542E+00    2.3419559637072611E+00    2.6749073341367463E-01
3.9147055493126302E+01    1.2664316582885993E+00    2.3419559637072611E+00    2.8935834157786000E-01
4.0529808025860810E+01    1.3614164281004668E+00    2.3419559637072611E+00    3.1304451223233648E-01
4.1961393513511240E+01    1.4593334420663433E+00    2.3419559637072611E+00    3.3868209669875154E-01
4.3443545167355794E+01    1.5596558561876526E+00    2.3419559637072611E+00    3.6640752635888740E-01
4.4978049075047366E+01    1.6617979469964783E+00    2.3419559637072611E+00    3.9635849897447090E-01
4.6566763998623138E+01    1.7651280345138971E+00    2.3419559637072611E+00    4.2867211642533859E-01
4.8211585595230147E+01    1.8689801461124418E+00    2.3419559637072611E+00    4.6348147177760007E-01
4.9914505239722644E+01    1.9726738095891001E+00    2.3419559637072611E+00    5.0091375776147917E-01
5.1677575059319224E+01    2.0755292352126000E+00    2.3419559637072611E+00    5.4108613815257178E-01
5.3502930680545909E+01    2.1768871443761428E+00    2.3419559637072611E+00    5.8410260400479841E-01
5.5392750120602578E+01    2.2761254266809980E+00    2.3419559637072611E+00    6.3004930816774807E-01
5.7349321371645829E+01    2.3726816641271471E+00    2.3419559637072611E+00    6.7899266745079279E-01
5.9375002227322796E+01    2.4660689293240159E+00    2.3419559637072611E+00    7.3097542011539529E-01
6.1472246417894510E+01    2.5558939156813700E+00    2.3419559637072611E+00    7.8601507932416792E-01
6.3643556378429672E+01    2.6418701509666467E+00    2.3419559637072611E+00    8.4410162320358928E-01
6.5891560899834928E+01    2.7238344347848114E+00    2.3419559637072611E+00    9.0519991492270580E-01
6.8218968971510208E+01    2.8017554954014452E+00    2.3419559637072611E+00    9.6925056063574033E-01
7.0628585269218178E+01    2.8757426328325297E+00    2.3419559637072611E+00    1.0361741822621737E+00
7.3123328588587739E+01    2.9460512783109212E+00    2.3419559637072611E+00    1.1058775845523119E+00
7.5706175661273647E+01    3.0130833583132421E+00    2.3419559637072611E+00    1.1782594346130570E+00
7.8380253523498894E+01    3.0773884889213825E+00    2.3419559637072611E+00    1.2532213444249924E+00
8.1148784610322849E+01    3.1396575214157152E+00    2.3419559637072611E+00    1.3306755913603581E+00
8.4015122474940881E+01    3.2007149678411260E+00    2.3419559637072611E+00    1.4105555286746978E+00
8.6982687236203873E+01    3.2615054942371451E+00    2.3419559637072611E+00    1.4928227412637021E+00
9.0055071705548812E+01    3.3230802419928303E+00    2.3419559637072611E+00    1.5774779003478623E+00
9.3235978303002270E+01    3.3865757487786170E+00    2.3419559637072611E+00    1.6645653397904454E+00
9.6529260096906100E+01    3.4531913828432224E+00    2.3419559637072611E+00    1.7541785992255721E+00
9.9938826062156153E+01    3.5241604651394809E+00    2.3419559637072611E+00    1.8464601374239604E+00
1.0346886588546354E+02    3.6007248132147738E+00    2.3419559637072611E+00    1.9416075260578205E+00
1.0712359379692580E+02    3.6840967253031272E+00    2.3419559637072611E+00    2.0398645024977453E+00
1.1090736836557576E+02    3.7754266314231053E+00    2.3419559637072611E+00    2.1415202847020489E+00
1.1482483910697920E+02    3.8757712173298886E+00    2.3419559637072611E+00    2.2469078524119066E+00
1.1888068277378797E+02    3.9860515708833448E+00    2.3419559637072611E+00    2.3563897574490849E+00
1.2307973629915718E+02    4.1070218786671910E+00    2.3419559637072611E+00    2.4703533304618044E+00
1.2742715949490271E+02    4.2392428947279530E+00    2.3419559637072611E+00    2.5892057265610533E+00
1.3192808807993632E+02    4.3830441943291616E+00    2.3419559637072611E+00    2.7133542069394236E+00
1.3658805281121437E+02    4.5385146272499597E+00    2.3419559637072611E+00    2.8432065758849938E+00
1.4141261684513370E+02    4.7054749877743429E+00    2.3419559637072611E+00    2.9791495245759654E+00
1.4640753387824964E+02    4.8834740835722465E+00    2.3419559637072611E+00    3.1215407088320974E+00
1.5157894168226974E+02    3.6681949229858057E+00    3.1509406959081958E+00    1.7658074695893442E+00
1.5693294936957258E+02    3.6591786966392328E+00    3.0865148954046804E+00    1.7747018674714239E+00
1.6247613596373097E+02    3.7051442338785323E+00    3.0435885297872356E+00    1.8201181215504771E+00
1.6821511902855468E+02    3.7848126952933128E+00    3.0144440730947735E+00    1.8913039838905124E+00
1.7415674278185460E+02    3.8851713183982328E+00    2.9943023871043399E+00    1.9814953524276555E+00
1.8030830831190286E+02    3.9981051573707638E+00    2.9801551785110321E+00    2.0863870774062514E+00
1.8667715947709803E+02    4.1184024340869581E+00    2.9700757629889627E+00    2.2031972733517997E+00
1.9327089166569760E+02    4.2425808636640827E+00    2.9628062240270521E+00    2.3301006444346957E+00
2.0009760727912413E+02    4.3681926538070925E+00    2.9575092028556655E+00    2.4658804067779072E+00
2.0716537088595135E+02    4.4933972368204014E+00    2.9536170743641246E+00    2.6096951844775411E+00
2.1448286737908427E+02    4.6167255516967050E+00    2.9507377743073770E+00    2.7609499961528448E+00
2.2205883252794877E+02    4.7369245410231224E+00    2.9485963001035866E+00    2.9191929905081437E+00
2.2990230130529540E+02    4.8528792463804455E+00    2.9469968596163896E+00    3.0840607568469043E+00
2.3802291179328489E+02    4.9635728130657242E+00    2.9457982899426409E+00    3.2552462479530515E+00
2.4643025707061713E+02    5.0680569092892629E+00    2.9448978490748678E+00    3.4324608991569105E+00
2.5513466811288930E+02    5.1654566865985547E+00    2.9442200352823806E+00    3.6154368554801861E+00
2.6414653641505117E+02    5.2549651204695822E+00    2.9437090431957218E+00    3.8039055952889864E+00
2.7347660938458705E+02    5.3358550999554781E+00    2.9433233746975169E+00    3.9976022670787330E+00
2.8313635184814427E+02    5.4074919230794620E+00    2.9430320303161408E+00    4.1962748711501892E+00
2.9313729579387660E+02    5.4693378012233467E+00    2.9428117963331406E+00    4.3996749396722103E+00
3.0349136818478553E+02    5.5209644823092283E+00    2.9426452331420898E+00    4.6075701118710102E+00
3.1421129214162710E+02    5.5620618710382370E+00    2.9425192093842067E+00    4.8197583178923171E+00
3.2530973137660959E+02    5.5924388841505506E+00    2.9424238324681302E+00    5.0360567807177699E+00
3.3680032369109853E+02    5.6120293989301624E+00    2.9423516317512464E+00    5.2563277756150528E+00
3.4869678677735646E+02    5.6208886109678087E+00    2.9422969669921741E+00    5.4804651974398695E+00
3.6101330816366544E+02    5.6191910904265328E+00    2.9422555742012100E+00    5.7084048900169062E+00
3.7376502243504467E+02    5.5394804430993361E+00    2.8558773754427231E+00    5.8652252120550941E+00
3.8696715283564077E+02    5.2377905675433167E+00    2.5137587767003717E+00    5.7667578685137197E+00
4.0063544401132759E+02    4.9784111842546457E+00    2.2546020441152179E+00    5.6986720769827937E+00
4.1478669160661980E+02    4.7516502490990593E+00    2.0582840224582806E+00    5.6607572318989900E+00
4.2943761284149554E+02    4.5499434131022936E+00    1.9095711355757781E+00    5.6523834915272992E+00
4.4460621081975989E+02    4.3674244478573696E+00    1.7969167078911823E+00    5.6723635231196763E+00
4.6031059410826708E+02    4.1996073012114730E+00    1.7115786654922334E+00    5.7190389593745321E+00
4.7656949149896485E+02    4.0431024030144771E+00    1.6469339379421344E+00    5.7904649759898392E+00
4.9340288198244309E+02    3.8953857624655535E+00    1.5979634666248630E+00    5.8846110769352187E+00
5.1083065126063684E+02    3.7546266958370773E+00    1.5608676127781873E+00    5.9995121061370948E+00
5.2887421463804299E+02    3.6195228400102897E+00    1.5327662719563460E+00    6.1333796506608547E+00
5.4755511287104378E+02    3.4891894993992976E+00    1.5114788545985844E+00    6.2846448446942080E+00
5.6689562449487210E+02    3.3630552677311325E+00    1.4953533036700255E+00    6.4519746650003293E+00
5.8691951519858117E+02    3.2407780998036952E+00    1.4831376528763061E+00    6.6342665863108996E+00
6.0765068989177485E+02    3.1221906206234653E+00    1.4738840080191382E+00    6.8306099682501626E+00
6.2911387223602765E+02    3.0072449999148629E+00    1.4668742241010109E+00    7.0402579369844567E+00
6.5133543626567803E+02    2.8959694943116694E+00    1.4615640734451321E+00    7.2626006795131017E+00
6.7434163286578985E+02    2.7884472240426343E+00    1.4575415487719250E+00    7.4971140749038483E+00
6.9816073213207346E+02    2.6847822325373887E+00    1.4544943486119455E+00    7.7433500019349788E+00
7.2282116976782140E+02    2.5658133591282732E+00    1.4326619095130573E+00    7.9519779576041962E+00
7.4835235540965130E+02    2.4502730348848103E+00    1.4107679792513608E+00    8.1682906864530089E+00
7.7478566186873422E+02    2.3437086688861437E+00    1.3941825760867277E+00    8.4063321326469165E+00
8.0215264573967897E+02    2.2450465187554420E+00    1.3816187347112243E+00    8.6633613864647998E+00
8.3048594444209971E+02    2.1534678607980919E+00    1.3721014208076407E+00    8.9370823471967906E+00
8.5982037403360118E+02    2.0683376940083069E+00    1.3648917287344489E+00    9.2255300615696214E+00
8.9019058800385733E+02    1.9891610641260544E+00    1.3594302697797307E+00    9.5269537114777734E+00
9.2163390537915473E+02    1.9155370507833418E+00    1.3552930270312524E+00    9.8397729629483734E+00
9.5418786380243341E+02    1.8471375793824882E+00    1.3521589661022930E+00    1.0162498397775559E+01
9.8789128659474920E+02    1.7836838857709045E+00    1.3497848639613323E+00    1.0493697528930328E+01
1.0227855886411724E+03    1.7249297233222118E+00    1.3479864000230475E+00    1.0831970373918750E+01
1.0589119914466876E+03    1.6706558676959897E+00    1.3466240343242020E+00    1.1175890674159444E+01
1.0963148872627712E+03    1.6206570046294528E+00    1.3455919954969129E+00    1.1524011704823307E+01
1.1350389283928459E+03    1.5747411202708907E+00    1.3448102012440590E+00    1.1874816266506931E+01
1.1751302964981960E+03    1.5327237553385102E+00    1.3442179793734801E+00    1.2226711709013358E+01
1.2166382559936744E+03    1.4944243205431285E+00    1.3437693509566788E+00    1.2578030177767696E+01
1.2596123598874483E+03    1.4596675209751351E+00    1.3434295041317199E+00    1.2926995983230283E+01
1.3041038583964914E+03    1.4282807014559398E+00    1.3431720646302310E+00    1.3271735859793329E+01
1.3501674228314519E+03    1.4000923582333387E+00    1.3429770453615169E+00    1.3610294276433352E+01
1.3978574692241625E+03    1.1423512774287128E+00    1.0711239817704492E+00    1.1961686674504250E+01
1.4472325992722181E+03    9.1651276085849254E-01    8.2635153672966322E-01    1.0511800777393320E+01
1.4983517579647787E+03    7.4276120432495407E-01    6.4093051728678085E-01    9.4120460492877758E+00
1.5512759091786245E+03    5.5133513874476281E-01    4.8593448717962923E-01    7.3261505799285773E+00
1.6060700862978565E+03    4.0872823407451581E-01    3.6810707187698682E-01    5.6665897296551053E+00
1.6627990190437411E+03    3.0355719956017824E-01    2.7885088684543013E-01    4.3763168329008657E+00
1.7215324161293761E+03    2.2584950467810377E-01    2.1123625953510827E-01    3.3744589685052864E+00
1.7823403946248577E+03    1.6832749203127390E-01    1.6001655166935030E-01    2.5976602733139162E+00
1.8452954731357936E+03    1.2566882273574986E-01    1.2121678922698985E-01    1.9962803186247819E+00
1.9104750110852074E+03    9.3973778921241535E-02    9.1824635881867650E-02    1.5314407077949510E+00
1.9779568210713478E+03    7.0382232744832782E-02    6.9559372168276984E-02    1.1727515312942471E+00
2.0478213808026539E+03    5.2791475101756233E-02    5.2693072479457648E-02    8.9646302385377941E-01
2.1201545400970977E+03    3.9652370987822774E-02    3.9916270879971058E-02    6.8402932026215080E-01
2.1950417479108573E+03    2.9822457707597675E-02    3.0237635692158201E-02    5.2100335650704255E-01
2.2725750259096239E+03    2.2456597884231287E-02    2.2905736945471475E-02    3.9613062990886222E-01
2.3528469348264384E+03    1.6929033529046681E-02    1.7351647144552427E-02    3.0066853556722117E-01
2.4359532056335870E+03    1.2775260060135126E-02    1.3144333712830084E-02    2.2783230254372838E-01
2.5219959596104222E+03    9.6497267227424709E-03    9.9571492102016358E-03    1.7236468945897246E-01
2.6110779162676686E+03    7.2951142541026054E-03    7.5427802245695624E-03    1.3020411904170393E-01
2.7033053132971791E+03    5.5193393120204527E-03    5.7138564176938064E-03    9.8217101974947457E-02
