#combined exterior and interior data for T_evap; (T[K], Planck, Stellar, Rosseland)
3.0000000000000000E+00    3.4275209588093031E-03    2.3419559637072611E+00    1.6545216982330930E-03
3.1059655287322618E+00    3.6732197283649184E-03    2.3419559637072611E+00    1.7641152060941234E-03
3.2156739552243598E+00    3.9363157847037231E-03    2.3419559637072611E+00    1.8813663732411693E-03
3.3292574962321346E+00    4.2179677468653512E-03    2.3419559637072611E+00    2.0068175640333467E-03
3.4468529954360925E+00    4.5194085702857092E-03    2.3419559637072611E+00    2.1410491136955130E-03
3.5686022069563790E+00    4.8419532012666895E-03    2.3419559637072611E+00    2.2846820031432562E-03
3.6946518254059528E+00    5.1870069672146782E-03    2.3419559637072611E+00    2.4383804051479759E-03
3.8251536998800524E+00    5.5560759918718899E-03    2.3419559637072611E+00    2.6028546054556738E-03
3.9602651907155879E+00    5.9507798150665479E-03    2.3419559637072611E+00    2.7788643122042440E-03
4.1001490688558144E+00    6.3728646592868142E-03    2.3419559637072611E+00    2.9672215973040469E-03
4.2449739038313119E+00    6.8242202052470344E-03    2.3419559637072611E+00    3.1687946892653375E-03
4.3949142193596993E+00    7.3068980264954153E-03    2.3419559637072611E+00    3.3845117434760674E-03
4.5501507036585132E+00    7.8231326593679023E-03    2.3419559637072611E+00    3.6153649809641903E-03
4.7108703059600501E+00    8.3753649273730982E-03    2.3419559637072611E+00    3.8624149854197577E-03
4.8772669425686850E+00    8.9662702116893468E-03    2.3419559637072611E+00    4.1267963245348750E-03
5.0495410155906377E+00    9.5987856588557151E-03    2.3419559637072611E+00    4.4097217673704963E-03
5.2279001269311909E+00    1.0276144724169510E-02    2.3419559637072611E+00    4.7124888094850353E-03
5.4125592113782046E+00    1.1001913238875621E-02    2.3419559637072611E+00    5.0364858492612441E-03
5.6037407956130689E+00    1.1780029703800533E-02    2.3419559637072611E+00    5.3831991512954692E-03
5.8016752663703963E+00    1.2614849778316796E-02    2.3419559637072611E+00    5.7542204869320355E-03
6.0066011480696169E+00    1.3511195406751750E-02    2.3419559637072611E+00    6.1512555239189347E-03
6.2187653902530293E+00    1.4474409118690072E-02    2.3419559637072611E+00    6.5761330421099445E-03
6.4384236651766908E+00    1.5510414152546888E-02    2.3419559637072611E+00    7.0308150572324212E-03
6.6658406759127811E+00    1.6625781185588388E-02    2.3419559637072611E+00    7.5174079400933038E-03
6.9012904753346884E+00    1.7827802611207758E-02    2.3419559637072611E+00    8.0381746243519923E-03
7.1450567963692624E+00    1.9124575489393111E-02    2.3419559637072611E+00    8.5955480023182408E-03
7.3974330131920443E+00    2.0525092354867710E-02    2.3419559637072611E+00    9.1921447003273978E-03
7.6587243988323896E+00    2.2039356585564451E-02    2.3419559637072611E+00    9.8307857533100618E-03
7.9292442763577622E+00    2.3678476365927837E-02    2.3419559637072611E+00    1.0514504038710940E-02
8.2093202460023029E+00    2.5454832698702214E-02    2.3419559637072611E+00    1.1246577970432192E-02
8.4992881560440416E+00    2.7382192420611202E-02    2.3419559637072611E+00    1.2030536348638600E-02
8.7994991583321234E+00    2.9475923840635430E-02    2.3419559637072611E+00    1.2870198865792631E-02
9.1103132457223861E+00    3.1753148660404913E-02    2.3419559637072611E+00    1.3769682699532484E-02
9.4321068148357909E+00    3.4233017899876282E-02    2.3419559637072611E+00    1.4733450080953595E-02
9.7652657388916850E+00    3.6936915590256018E-02    2.3419559637072611E+00    1.5766317052724365E-02
1.0110193474162946E+01    3.9888811617561068E-02    2.3419559637072611E+00    1.6873509363513943E-02
1.0467303634806061E+01    4.3115530166229342E-02    2.3419559637072611E+00    1.8060673931533069E-02
1.0837027566606025E+01    4.6647184054333740E-02    2.3419559637072611E+00    1.9333940686989341E-02
1.1219811965471335E+01    5.0517571055397163E-02    2.3419559637072611E+00    2.0699956980501089E-02
1.1616115840724994E+01    5.4764597516061254E-02    2.3419559637072611E+00    2.2165921449777908E-02
1.2026419117330413E+01    5.9430865308713152E-02    2.3419559637072611E+00    2.3739664759539061E-02
1.2451213803399156E+01    6.4564111540496155E-02    2.3419559637072611E+00    2.5429671254783404E-02
1.2891014326336300E+01    7.0217891527616580E-02    2.3419559637072611E+00    2.7245178337612419E-02
1.3346348065368609E+01    7.6452049571243436E-02    2.3419559637072611E+00    2.9196204087217532E-02
1.3817766430769083E+01    8.3333458396308499E-02    2.3419559637072611E+00    3.1293664789902774E-02
1.4305834715756038E+01    9.0936474816128973E-02    2.3419559637072611E+00    3.3549409923825615E-02
1.4811143972217785E+01    9.9343697635128292E-02    2.3419559637072611E+00    3.5976361254140568E-02
1.5334300133051286E+01    1.0864635945076900E-01    2.3419559637072611E+00    3.8588556769492133E-02
1.5875936741648431E+01    1.1894507299897956E-01    2.3419559637072611E+00    4.1401315273577016E-02
1.6436703292225193E+01    1.3035012187326581E-01    2.3419559637072611E+00    4.4431291005143210E-02
1.7017278874447534E+01    1.4298218242375385E-01    2.3419559637072611E+00    4.7696668192368716E-02
1.7618359675531394E+01    1.5697248615646614E-01    2.3419559637072611E+00    5.1217228173101863E-02
1.8240671728221173E+01    1.7246345730841475E-01    2.3419559637072611E+00    5.5014567234156146E-02
1.8884968846184627E+01    1.8960899095875569E-01    2.3419559637072611E+00    5.9112249142527364E-02
1.9552019805756849E+01    2.0857429131089322E-01    2.3419559637072611E+00    6.3535895177429608E-02
2.0242632201214423E+01    2.2953655304807324E-01    2.3419559637072611E+00    6.8313524726896668E-02
2.0957638264717446E+01    2.5268442206348640E-01    2.3419559637072611E+00    7.3475671323891212E-02
2.1697899624358065E+01    2.7821763976200603E-01    2.3419559637072611E+00    7.9055634480183198E-02
2.2464312967141105E+01    3.0634634284847634E-01    2.3419559637072611E+00    8.5089763252546316E-02
2.3257792778673313E+01    3.3728895292639061E-01    2.3419559637072611E+00    9.1617575276777816E-02
2.4079299719823517E+01    3.7127105782231001E-01    2.3419559637072611E+00    9.8682254640517608E-02
2.4929823759061236E+01    4.0852182281715699E-01    2.3419559637072611E+00    1.0633081361161073E-01
2.5810395145829254E+01    4.4927053321647209E-01    2.3419559637072611E+00    1.1461449749230709E-01
2.6722064579292049E+01    4.9374073619208519E-01    2.3419559637072611E+00    1.2358891914976509E-01
2.7665935811728254E+01    5.4214579869740143E-01    2.3419559637072611E+00    1.3331470002392165E-01
2.8643146268414043E+01    5.9468110585137390E-01    2.3419559637072611E+00    1.4385763127011897E-01
2.9654879655490589E+01    6.5151694862924403E-01    2.3419559637072611E+00    1.5528914426100804E-01
3.0702343174827575E+01    7.1278883492172218E-01    2.3419559637072611E+00    1.6768637565367711E-01
3.1786804983723918E+01    7.7859086986967130E-01    2.3419559637072611E+00    1.8113288946848274E-01
3.2909571928103169E+01    8.4896583537110604E-01    2.3419559637072611E+00    1.9571868383427882E-01
3.4072004028335677E+01    9.2389783856651653E-01    2.3419559637072611E+00    2.1154055874735164E-01
3.5275488300232773E+01    1.0033032952083862E+00    2.3419559637072611E+00    2.2870184250748515E-01
3.6521481794408061E+01    1.0870277698683490E+00    2.3419559637072611E+00    2.4731293214370606E-01
3.7811486012809581E+01    1.1748402236330542E+00    2.3419559637072611E+00    2.6749073341367463E-01
3.9147055493126302E+01    1.2664316582885993E+00    2.3419559637072611E+00    2.8935834157786000E-01
4.0529808025860810E+01    1.3614164281004668E+00    2.3419559637072611E+00    3.1304451223233648E-01
4.1961393513511240E+01    1.4593334420663433E+00    2.3419559637072611E+00    3.3868209669875154E-01
4.3443545167355794E+01    1.5596558561876526E+00    2.3419559637072611E+00    3.6640752635888740E-01
4.4978049075047366E+01    1.6617979469964783E+00    2.3419559637072611E+00    3.9635849897447090E-01
4.6566763998623138E+01    1.7651280345138971E+00    2.3419559637072611E+00    4.2867211642533859E-01
4.8211585595230147E+01    1.8689801461124418E+00    2.3419559637072611E+00    4.6348147177760007E-01
4.9914505239722644E+01    1.9726738095891001E+00    2.3419559637072611E+00    5.0091375776147917E-01
5.1677575059319224E+01    2.0755292352126000E+00    2.3419559637072611E+00    5.4108613815257178E-01
5.3502930680545909E+01    2.1768871443761428E+00    2.3419559637072611E+00    5.8410260400479841E-01
5.5392750120602578E+01    2.2761254266809980E+00    2.3419559637072611E+00    6.3004930816774807E-01
5.7349321371645829E+01    2.3726816641271471E+00    2.3419559637072611E+00    6.7899266745079279E-01
5.9375002227322796E+01    2.4660689293240159E+00    2.3419559637072611E+00    7.3097542011539529E-01
6.1472246417894510E+01    2.5558939156813700E+00    2.3419559637072611E+00    7.8601507932416792E-01
6.3643556378429672E+01    2.6418701509666467E+00    2.3419559637072611E+00    8.4410162320358928E-01
6.5891560899834928E+01    2.7238344347848114E+00    2.3419559637072611E+00    9.0519991492270580E-01
6.8218968971510208E+01    2.8017554954014452E+00    2.3419559637072611E+00    9.6925056063574033E-01
7.0628585269218178E+01    2.8757426328325297E+00    2.3419559637072611E+00    1.0361741822621737E+00
7.3123328588587739E+01    2.9460512783109212E+00    2.3419559637072611E+00    1.1058775845523119E+00
7.5706175661273647E+01    3.0130833583132421E+00    2.3419559637072611E+00    1.1782594346130570E+00
7.8380253523498894E+01    3.0773884889213825E+00    2.3419559637072611E+00    1.2532213444249924E+00
8.1148784610322849E+01    3.1396575214157152E+00    2.3419559637072611E+00    1.3306755913603581E+00
8.4015122474940881E+01    3.2007149678411260E+00    2.3419559637072611E+00    1.4105555286746978E+00
8.6982687236203873E+01    3.2615054942371451E+00    2.3419559637072611E+00    1.4928227412637021E+00
9.0055071705548812E+01    3.3230802419928303E+00    2.3419559637072611E+00    1.5774779003478623E+00
9.3235978303002270E+01    3.3865757487786170E+00    2.3419559637072611E+00    1.6645653397904454E+00
9.6529260096906100E+01    3.4531913828432224E+00    2.3419559637072611E+00    1.7541785992255721E+00
9.9938826062156153E+01    3.5241604651394809E+00    2.3419559637072611E+00    1.8464601374239604E+00
1.0346886588546354E+02    3.6007248132147738E+00    2.3419559637072611E+00    1.9416075260578205E+00
1.0712359379692580E+02    3.6840967253031272E+00    2.3419559637072611E+00    2.0398645024977453E+00
1.1090736836557576E+02    3.7754266314231053E+00    2.3419559637072611E+00    2.1415202847020489E+00
1.1482483910697920E+02    3.8757712173298886E+00    2.3419559637072611E+00    2.2469078524119066E+00
1.1888068277378797E+02    3.9860515708833448E+00    2.3419559637072611E+00    2.3563897574490849E+00
1.2307973629915718E+02    4.1070218786671910E+00    2.3419559637072611E+00    2.4703533304618044E+00
1.2742715949490271E+02    4.2392428947279530E+00    2.3419559637072611E+00    2.5892057265610533E+00
1.3192808807993632E+02    4.3830441943291616E+00    2.3419559637072611E+00    2.7133542069394236E+00
1.3658805281121437E+02    4.5385146272499597E+00    2.3419559637072611E+00    2.8432065758849938E+00
1.4141261684513370E+02    4.7054749877743429E+00    2.3419559637072611E+00    2.9791495245759654E+00
1.4640753387824964E+02    4.8834740835722465E+00    2.3419559637072611E+00    3.1215407088320974E+00
1.5157894168226974E+02    5.4308733630454533E+00    3.9861980841254048E+00    2.9115486140861537E+00
1.5693294936957258E+02    4.8221332409921587E+00    3.6640690816078259E+00    2.5542957944848621E+00
1.6247613596373097E+02    4.4871154848318264E+00    3.4494372535206037E+00    2.3569677246331899E+00
1.6821511902855468E+02    4.3206981034535827E+00    3.3037149700582926E+00    2.2652720538498032E+00
1.7415674278185460E+02    4.2592414466651585E+00    3.2030065401061245E+00    2.2449238587660347E+00
1.8030830831190286E+02    4.2637643855037117E+00    3.1322704971395847E+00    2.2739907292006665E+00
1.8667715947709803E+02    4.3100405035495672E+00    3.0818734195292374E+00    2.3382577818970498E+00
1.9327089166569760E+02    4.3827277663874336E+00    3.0455257247196852E+00    2.4283892726522907E+00
2.0009760727912413E+02    4.4718795890291103E+00    3.0190406188627525E+00    2.5381779830096423E+00
2.0716537088595135E+02    4.5708447650392650E+00    2.9995799764050477E+00    2.6634353058754243E+00
2.1448286737908427E+02    4.6750143381815761E+00    2.9851834761213101E+00    2.8013001348486264E+00
2.2205883252794877E+02    4.7810506624827580E+00    2.9744761051023589E+00    2.9497763099012744E+00
2.2990230130529540E+02    4.8864281106053893E+00    2.9664789026663732E+00    3.1074407047622983E+00
2.3802291179328489E+02    4.9891566986552967E+00    2.9604860542976295E+00    3.2732544141743771E+00
2.4643025707061713E+02    5.0876047547206111E+00    2.9559838499587641E+00    3.4464204902346354E+00
2.5513466811288930E+02    5.1804084700758537E+00    2.9525947809963289E+00    3.6263148561235781E+00
2.6414653641505117E+02    5.2664056461429167E+00    2.9500398205630338E+00    3.8124173591602086E+00
2.7347660938458705E+02    5.3446073243362573E+00    2.9481114780720090E+00    4.0042833706593521E+00
2.8313635184814427E+02    5.4141833633490180E+00    2.9466547561651284E+00    4.2015308258400648E+00
2.9313729579387660E+02    5.4744488048039921E+00    2.9455535862501288E+00    4.4038159986743253E+00
3.0349136818478553E+02    5.5248636357161631E+00    2.9447207702948743E+00    4.6108357594070704E+00
3.1421129214162710E+02    5.5650323657395360E+00    2.9440906515054595E+00    4.8223347477557068E+00
3.2530973137660959E+02    5.5946984622402782E+00    2.9436137669250764E+00    5.0380896261443304E+00
3.3680032369109853E+02    5.6137454306182688E+00    2.9432527633406562E+00    5.2579314224226348E+00
3.4869678677735646E+02    5.6221896841467078E+00    2.9429794395452951E+00    5.4817297862583789E+00
3.6101330816366544E+02    5.6201758916324280E+00    2.9427724755904752E+00    5.7094016036711750E+00
3.7376502243504467E+02    5.5402155900904884E+00    2.8562574060047616E+00    5.8660004298306694E+00
3.8696715283564077E+02    5.2383169337347795E+00    2.5140121655860033E+00    5.7673349880853495E+00
4.0063544401132759E+02    4.9787900649572405E+00    2.2547741992723438E+00    5.6991039659589351E+00
4.1478669160661980E+02    4.7519241278786852E+00    2.0584030755344753E+00    5.6610821577715491E+00
4.2943761284149554E+02    4.5501420460098894E+00    1.9096548034399106E+00    5.6526292385222048E+00
4.4460621081975989E+02    4.3675688668089716E+00    1.7969763479523735E+00    5.6725503287638288E+00
4.6031059410826708E+02    4.1997124928454532E+00    1.7116216978959251E+00    5.7191816301824758E+00
4.7656949149896485E+02    4.0431791178642298E+00    1.6469653044562338E+00    5.7905744030538857E+00
4.9340288198244309E+02    3.8954417537287962E+00    1.5979865207170496E+00    5.8846953201355845E+00
5.1083065126063684E+02    3.7546675800089813E+00    1.5608846712778586E+00    5.9995771708410297E+00
5.2887421463804299E+02    3.6195526984614186E+00    1.5327789614338048E+00    6.1334300405641233E+00
5.4755511287104378E+02    3.4892113054404170E+00    1.5114883336232383E+00    6.2846839594095663E+00
5.6689562449487210E+02    3.3630711909774975E+00    1.4953604076411466E+00    6.4520050857377020E+00
5.8691951519858117E+02    3.2407897249231876E+00    1.4831429903244531E+00    6.6342902829011132E+00
6.0765068989177485E+02    3.1221991058582912E+00    1.4738880260264264E+00    6.8306284510324158E+00
6.2911387223602765E+02    3.0072511919888436E+00    1.4668772533656431E+00    7.0402723684842838E+00
6.5133543626567803E+02    2.8959740121147184E+00    1.4615663598751440E+00    7.2626119573844052E+00
6.7434163286578985E+02    2.7884505198906990E+00    1.4575432760343063E+00    7.4971228943424517E+00
6.9816073213207346E+02    2.6847846368303383E+00    1.4544956543180296E+00    7.7433569024969806E+00
7.2282116976782140E+02    2.5658150981545100E+00    1.4326628818534288E+00    7.9519833241819162E+00
7.4835235540965130E+02    2.4502742916108349E+00    1.4107687030485658E+00    8.1682948611355801E+00
7.7478566186873422E+02    2.3437095787112070E+00    1.3941831170487564E+00    8.4063353865686050E+00
8.0215264573967897E+02    2.2450471785000667E+00    1.3816191402956961E+00    8.6633639264056139E+00
8.3048594444209971E+02    2.1534683399146100E+00    1.3721017256343493E+00    8.9370843318779212E+00
8.5982037403360118E+02    2.0683380424406574E+00    1.3648919582625689E+00    9.2255316134429730E+00
8.9019058800385733E+02    1.9891613178708656E+00    1.3594304428583550E+00    9.5269549254246400E+00
9.2163390537915473E+02    1.9155372358268201E+00    1.3552931576862517E+00    9.8397739127137385E+00
9.5418786380243341E+02    1.8471377145150196E+00    1.3521590648147985E+00    1.0162499140832066E+01
9.8789128659474920E+02    1.7836839845975911E+00    1.3497849385884459E+00    1.0493698110155817E+01
1.0227855886411724E+03    1.7249297957049698E+00    1.3479864564686719E+00    1.0831970828403492E+01
1.0589119914466876E+03    1.6706559207929628E+00    1.3466240770337912E+00    1.1175891029375837E+01
1.0963148872627712E+03    1.6206570436415642E+00    1.3455920278220659E+00    1.1524011982291741E+01
1.1350389283928459E+03    1.5747411489819556E+00    1.3448102257148498E+00    1.1874816483096231E+01
1.1751302964981960E+03    1.5327237765046715E+00    1.3442179979014059E+00    1.2226711877949411E+01
1.2166382559936744E+03    1.4944243361743395E+00    1.3437693649866642E+00    1.2578030309419615E+01
1.2596123598874483E+03    1.4596675325393513E+00    1.3434295147566933E+00    1.2926996085728113E+01
1.3041038583964914E+03    1.4282807100267789E+00    1.3431720726771641E+00    1.3271735939510004E+01
1.3501674228314519E+03    1.4000923645971117E+00    1.3429770514562487E+00    1.3610294338362094E+01
1.3978574692241625E+03    1.1423512813618260E+00    1.0711239854528767E+00    1.1961686715733961E+01
1.4472325992722181E+03    9.1651276324888942E-01    8.2635153888182911E-01    1.0511800804839973E+01
1.4983517579647787E+03    7.4276120579246807E-01    6.4093051855135308E-01    9.4120460679039564E+00
1.5512759091786245E+03    5.5133513956987301E-01    4.8593448790591776E-01    7.3261505909056259E+00
1.6060700862978565E+03    4.0872823453784685E-01    3.6810707229376222E-01    5.6665897360869186E+00
1.6627990190437411E+03    3.0355719982082929E-01    2.7885088708459521E-01    4.3763168366637739E+00
1.7215324161293761E+03    2.2584950482499616E-01    2.1123625967235143E-01    3.3744589707032504E+00
1.7823403946248577E+03    1.6832749211420109E-01    1.6001655174810628E-01    2.5976602745956572E+00
1.8452954731357936E+03    1.2566882278264563E-01    1.2121678927218370E-01    1.9962803193709591E+00
1.9104750110852074E+03    9.3973778947804482E-02    9.1824635907801808E-02    1.5314407082285832E+00
1.9779568210713478E+03    7.0382232759902241E-02    6.9559372183159107E-02    1.1727515315457993E+00
2.0478213808026539E+03    5.2791475110318044E-02    5.2693072487997705E-02    8.9646302399944477E-01
2.1201545400970977E+03    3.9652370992694003E-02    3.9916270884871707E-02    6.8402932034634811E-01
2.1950417479108573E+03    2.9822457710372799E-02    3.0237635694970420E-02    5.2100335655562346E-01
2.2725750259096239E+03    2.2456597885814188E-02    2.2905736947085246E-02    3.9613062993684317E-01
2.3528469348264384E+03    1.6929033529950566E-02    1.7351647145478478E-02    3.0066853558330953E-01
2.4359532056335870E+03    1.2775260060651810E-02    1.3144333713361496E-02    2.2783230255296341E-01
2.5219959596104222E+03    9.6497267230380990E-03    9.9571492105065829E-03    1.7236468946426506E-01
2.6110779162676686E+03    7.2951142542718988E-03    7.5427802247445535E-03    1.3020411904473256E-01
2.7033053132971791E+03    5.5193393121174749E-03    5.7138564177942244E-03    9.8217101976678101E-02
